# IR Spectrum
# X-Axis:  Frequency (cm-1)
# Y-Axis:  Epsilon
#                  X                   Y               DY/DX
        0.0000000000        0.0583966352        0.0028495945
        1.0000000000        0.0613694969        0.0031012047
        2.0000000000        0.0646100427        0.0033858435
        3.0000000000        0.0681541289        0.0037093610
        4.0000000000        0.0720440949        0.0040789250
        5.0000000000        0.0786820302        0.0045328793
        6.0000000000        0.0834543531        0.0050238077
        7.0000000000        0.0887561859        0.0055944789
        8.0000000000        0.0946756740        0.0062624005
        9.0000000000        0.1013207963        0.0070499662
       10.0000000000        0.1088250382        0.0079861200
       11.0000000000        0.1173550418        0.0091086914
       12.0000000000        0.1271210514        0.0104677114
       13.0000000000        0.1388685997        0.0121361688
       14.0000000000        0.1519957933        0.0141931346
       15.0000000000        0.1674274875        0.0167695736
       16.0000000000        0.1857654772        0.0200399865
       17.0000000000        0.2078198723        0.0242511180
       18.0000000000        0.2346972905        0.0297561211
       19.0000000000        0.2679308593        0.0370648522
       20.0000000000        0.3096704185        0.0469143286
       21.0000000000        0.3629520711        0.0603544309
       22.0000000000        0.4320464476        0.0788061818
       23.0000000000        0.5256106043        0.1039573241
       24.0000000000        0.6453367647        0.1367415314
       25.0000000000        0.8008816959        0.1745475578
       26.0000000000        0.9918618257        0.2039436215
       27.0000000000        1.1954011435        0.1929095075
       28.0000000000        1.3523392657        0.1080468182
       29.0000000000        1.3947004057       -0.0244046970
       30.0000000000        1.3173538032       -0.1175631630
       31.0000000000        1.1870430066       -0.1309596025
       32.0000000000        1.0728680504       -0.0919739878
       33.0000000000        1.0091879483       -0.0339802260
       34.0000000000        1.0061129923        0.0279594206
       35.0000000000        1.0647171175        0.0886088605
       36.0000000000        1.1801574740        0.1392151493
       37.0000000000        1.3323876010        0.1571876552
       38.0000000000        1.4742883995        0.1159647939
       39.0000000000        1.5491920686        0.0316193727
       40.0000000000        1.5450205443       -0.0320825081
       41.0000000000        1.5003582625       -0.0522932975
       42.0000000000        1.4421725114       -0.0664936030
       43.0000000000        1.3616284124       -0.0958104541
       44.0000000000        1.2547263917       -0.1129748590
       45.0000000000        1.1489181791       -0.0960012543
       46.0000000000        1.0709799645       -0.0585796845
       47.0000000000        1.0305854652       -0.0242473327
       48.0000000000        1.0170596581       -0.0057251763
       49.0000000000        1.0135248879       -0.0040843732
       50.0000000000        1.0085096200       -0.0181169937
       51.0000000000        0.9805528861       -0.0365929964
       52.0000000000        0.9415565233       -0.0371322985
       53.0000000000        0.9143025584       -0.0143609541
       54.0000000000        0.9157116673        0.0168764407
       55.0000000000        0.9436718210        0.0349387282
       56.0000000000        0.9743566758        0.0200896299
       57.0000000000        0.9736727916       -0.0238606358
       58.0000000000        0.9338515933       -0.0607133055
       59.0000000000        0.8680764399       -0.0653891146
       60.0000000000        0.8113778271       -0.0452994769
       61.0000000000        0.7806063458       -0.0154944389
       62.0000000000        0.7811372763        0.0167749882
       63.0000000000        0.8147270297        0.0508506851
       64.0000000000        0.8842400885        0.0891736074
       65.0000000000        0.9957613661        0.1355798832
       66.0000000000        1.1597125649        0.1944776408
       67.0000000000        1.3901583985        0.2690856736
       68.0000000000        1.7021109451        0.3557166089
       69.0000000000        2.0978778352        0.4298221408
       70.0000000000        2.5372684380        0.4296948194
       71.0000000000        2.9083834837        0.2869997247
       72.0000000000        3.0763599562        0.0450523668
       73.0000000000        3.0200391974       -0.1370254614
       74.0000000000        2.8420655133       -0.2057198730
       75.0000000000        2.6175288359       -0.2502400564
       76.0000000000        2.3339702922       -0.3179794217
       77.0000000000        1.9916897774       -0.3566184137
       78.0000000000        1.6423596609       -0.3328320672
       79.0000000000        1.3378980000       -0.2733518423
       80.0000000000        1.0965709115       -0.2104007190
       81.0000000000        0.9149748764       -0.1577848700
       82.0000000000        0.7783260471       -0.1174176152
       83.0000000000        0.6767842716       -0.0871066220
       84.0000000000        0.6016807754       -0.0641086680
       85.0000000000        0.5469094987       -0.0461009824
       86.0000000000        0.5084213351       -0.0312783276
       87.0000000000        0.4837696432       -0.0182119328
       88.0000000000        0.4718211811       -0.0056760067
       89.0000000000        0.4726305128        0.0074999058
       90.0000000000        0.4874312780        0.0225045429
       91.0000000000        0.5186095602        0.0403933279
       92.0000000000        0.5729632493        0.0613069330
       93.0000000000        0.6448642586        0.0818080943
       94.0000000000        0.7327792352        0.0905240454
       95.0000000000        0.8167762464        0.0674258409
       96.0000000000        0.8555623956        0.0051374171
       97.0000000000        0.8250012157       -0.0629509003
       98.0000000000        0.7418851923       -0.0961246908
       99.0000000000        0.6449073081       -0.0934969188
      100.0000000000        0.5600078297       -0.0751877049
      101.0000000000        0.4950157091       -0.0551080377
      102.0000000000        0.4487205731       -0.0381091072
      103.0000000000        0.4175846974       -0.0247131254
      104.0000000000        0.3983490377       -0.0141505494
      105.0000000000        0.3886511268       -0.0054905122
      106.0000000000        0.3870033919        0.0020708002
      107.0000000000        0.3926488296        0.0091977264
      108.0000000000        0.4054489634        0.0164748002
      109.0000000000        0.4258405844        0.0244807514
      110.0000000000        0.4548691238        0.0338680930
      111.0000000000        0.4943067047        0.0454543444
      112.0000000000        0.5468707302        0.0603328352
      113.0000000000        0.6165627330        0.0799995971
      114.0000000000        0.7091244362        0.1064440738
      115.0000000000        0.8324897661        0.1419896690
      116.0000000000        0.9967060081        0.1882178312
      117.0000000000        1.2117087262        0.2424044069
      118.0000000000        1.4795012533        0.2898667691
      119.0000000000        1.7786663894        0.2990782071
      120.0000000000        2.0565959666        0.2475031092
      121.0000000000        2.2646356963        0.1695296551
      122.0000000000        2.4025299994        0.1083356116
      123.0000000000        2.4735293569        0.0233645337
      124.0000000000        2.4246937974       -0.1300834400
      125.0000000000        2.2142969553       -0.2799439095
      126.0000000000        1.8983189536       -0.3337862462
      127.0000000000        1.5806988090       -0.3007674305
      128.0000000000        1.3119402853       -0.2349830666
      129.0000000000        1.1102165582       -0.1699539618
      130.0000000000        0.9705463753       -0.1163383510
      131.0000000000        0.8755706408       -0.0758425455
      132.0000000000        0.8140942609       -0.0497112997
      133.0000000000        0.7706472248       -0.0398595131
      134.0000000000        0.7302952064       -0.0418729104
      135.0000000000        0.6871926157       -0.0432505011
      136.0000000000        0.6465810950       -0.0366500540
      137.0000000000        0.6158097072       -0.0243182025
      138.0000000000        0.5985260989       -0.0101491641
      139.0000000000        0.5955576904        0.0042080274
      140.0000000000        0.6069415073        0.0185567577
      141.0000000000        0.6325524622        0.0324802558
      142.0000000000        0.6709723471        0.0434890246
      143.0000000000        0.7166926818        0.0459975307
      144.0000000000        0.7587029651        0.0361972233
      145.0000000000        0.7876665963        0.0224527770
      146.0000000000        0.8075088741        0.0199098713
      147.0000000000        0.8327545635        0.0328519371
      148.0000000000        0.8767972106        0.0566354976
      149.0000000000        0.9484594265        0.0878509462
      150.0000000000        1.0549911360        0.1265899872
      151.0000000000        1.2046349923        0.1742379911
      152.0000000000        1.4060729859        0.2293661117
      153.0000000000        1.6620395735        0.2797499874
      154.0000000000        1.9556625364        0.2922984455
      155.0000000000        2.2221663445        0.2259996155
      156.0000000000        2.3863946221        0.0996178924
      157.0000000000        2.4356582084        0.0142844626
      158.0000000000        2.4514999460        0.0350697245
      159.0000000000        2.5342674732        0.1409200299
      160.0000000000        2.7477803197        0.2905106540
      161.0000000000        3.1181975010        0.4480038325
      162.0000000000        3.6267206613        0.5520808148
      163.0000000000        4.1666136377        0.4878223497
      164.0000000000        4.5154943973        0.1707749430
      165.0000000000        4.4698030434       -0.2549567989
      166.0000000000        4.0658800674       -0.5092995244
      167.0000000000        3.5347544712       -0.5196446877
      168.0000000000        3.0702600497       -0.3977968551
      169.0000000000        2.7480270127       -0.2473849137
      170.0000000000        2.5675505906       -0.1202100872
      171.0000000000        2.4896962589       -0.0464500463
      172.0000000000        2.4517249577       -0.0396082039
      173.0000000000        2.3993068186       -0.0649355813
      174.0000000000        2.3542227468       -0.0585067540
      175.0000000000        2.3216905018        0.0015537351
      176.0000000000        2.3701319821        0.1002823711
      177.0000000000        2.5306460609        0.2245956869
      178.0000000000        2.8269061801        0.3715512460
      179.0000000000        3.2791046105        0.5335111401
      180.0000000000        3.8858947729        0.6688377777
      181.0000000000        4.5713932331        0.6659122538
      182.0000000000        5.1215720701        0.3809615326
      183.0000000000        5.2500104753       -0.1413933324
      184.0000000000        4.8688117623       -0.5789163263
      185.0000000000        4.1949458715       -0.7201231520
      186.0000000000        3.5006279259       -0.6462958995
      187.0000000000        2.9247060948       -0.5025037074
      188.0000000000        2.4930456038       -0.3646084116
      189.0000000000        2.1860398477       -0.2533893583
      190.0000000000        1.9773407722       -0.1677720033
      191.0000000000        1.8441357562       -0.1012503472
      192.0000000000        1.7706436441       -0.0473603773
      193.0000000000        1.7469869194       -0.0007879944
      194.0000000000        1.7680801794        0.0428051534
      195.0000000000        1.8328825420        0.0872545280
      196.0000000000        1.9441500083        0.1364034432
      197.0000000000        2.1086974541        0.1946098779
      198.0000000000        2.3381542004        0.2672123488
      199.0000000000        2.6495050286        0.3607296522
      200.0000000000        3.0682789199        0.4818869569
      201.0000000000        3.6286501121        0.6332645059
      202.0000000000        4.3457507383        0.8010147448
      203.0000000000        5.2207280612        0.9391583253
      204.0000000000        6.1939158167        0.9900516542
      205.0000000000        7.1888473050        0.9839568184
      206.0000000000        8.1910126610        1.0342587657
      207.0000000000        9.2598881748        1.0816797092
      208.0000000000       10.2502750225        0.8216526941
      209.0000000000       10.7443608049        0.1094807114
      210.0000000000       10.4580478018       -0.6322273884
      211.0000000000        9.6492700151       -0.8878221596
      212.0000000000        8.8478573617       -0.6544560796
      213.0000000000        8.4157557472       -0.1915507358
      214.0000000000        8.4709313616        0.2908089382
      215.0000000000        8.9422889904        0.6047480875
      216.0000000000        9.5409848476        0.5031173193
      217.0000000000        9.7646540588       -0.1290205103
      218.0000000000        9.2282718822       -0.9166490804
      219.0000000000        8.0646795588       -1.3253695230
      220.0000000000        6.7286527536       -1.2908340893
      221.0000000000        5.5505864799       -1.0500214052
      222.0000000000        4.6359974068       -0.7829966768
      223.0000000000        3.9732911993       -0.5572437170
      224.0000000000        3.5061601982       -0.3861514552
      225.0000000000        3.1857997188       -0.2670885750
      226.0000000000        2.9612803139       -0.1863146859
      227.0000000000        2.8094506567       -0.1169525212
      228.0000000000        2.7308234655       -0.0379012685
      229.0000000000        2.7385971063        0.0558666147
      230.0000000000        2.8472696539        0.1637602637
      231.0000000000        3.0700034306        0.2828730716
      232.0000000000        3.4098936272        0.3956930989
      233.0000000000        3.8405222341        0.4488310988
      234.0000000000        4.2597993440        0.3611921441
      235.0000000000        4.5136008189        0.1330345698
      236.0000000000        4.5349137692       -0.0668195278
      237.0000000000        4.4399420387       -0.0923144091
      238.0000000000        4.3959350952        0.0163938395
      239.0000000000        4.4729231274        0.1258926320
      240.0000000000        4.6046366776        0.1093248253
      241.0000000000        4.6390994430       -0.0573909256
      242.0000000000        4.4892429861       -0.2260493969
      243.0000000000        4.2379634255       -0.2485286616
      244.0000000000        4.0391136314       -0.1319113208
      245.0000000000        3.9975930338        0.0565211844
      246.0000000000        4.1636044217        0.2803506199
      247.0000000000        4.5677788008        0.5325623149
      248.0000000000        5.2352021417        0.8025852387
      249.0000000000        6.1597736186        1.0294653103
      250.0000000000        7.2278024636        1.0552379032
      251.0000000000        8.1402211602        0.7004709822
      252.0000000000        8.5294961477        0.0604762835
      253.0000000000        8.2947082045       -0.4905243602
      254.0000000000        7.6278470198       -0.8127368181
      255.0000000000        6.7130660436       -0.9970466738
      256.0000000000        5.6821892088       -1.0367681024
      257.0000000000        4.6906755050       -0.9257928488
      258.0000000000        3.8531598914       -0.7452802963
      259.0000000000        3.1996669383       -0.5694734762
      260.0000000000        2.7045460767       -0.4268884743
      261.0000000000        2.3342435152       -0.3190105372
      262.0000000000        2.0572537917       -0.2389474928
      263.0000000000        1.8495875428       -0.1792238569
      264.0000000000        1.6940361757       -0.1338650627
      265.0000000000        1.5785365179       -0.0985106362
      266.0000000000        1.4947254519       -0.0700533583
      267.0000000000        1.4368811319       -0.0462610734
      268.0000000000        1.4012032040       -0.0254810106
      269.0000000000        1.3853467628       -0.0064247486
      270.0000000000        1.3881405817        0.0119894181
      271.0000000000        1.4099952100        0.0307667960
      272.0000000000        1.4506770643        0.0509177153
      273.0000000000        1.5126749584        0.0736104467
      274.0000000000        1.5992177833        0.1002772915
      275.0000000000        1.7151732670        0.1327981092
      276.0000000000        1.8676127043        0.1737496378
      277.0000000000        2.0666766100        0.2267648308
      278.0000000000        2.3268713113        0.2970406870
      279.0000000000        2.6689514003        0.3919937500
      280.0000000000        3.1224685191        0.5218727600
      281.0000000000        3.7279497536        0.6994712625
      282.0000000000        4.5405471718        0.9359845033
      283.0000000000        5.6181179604        1.2252836281
      284.0000000000        6.9885414897        1.5026457837
      285.0000000000        8.5588069240        1.5854118352
      286.0000000000       10.0067106204        1.2221389736
      287.0000000000       10.8507379698        0.4194825620
      288.0000000000       10.8334535375       -0.4272400041
      289.0000000000       10.0750238168       -1.0470610730
      290.0000000000        8.8287010891       -1.3958915981
      291.0000000000        7.3890749363       -1.4330377324
      292.0000000000        6.0405785169       -1.2390915178
      293.0000000000        4.9345261798       -0.9714873923
      294.0000000000        4.0888502845       -0.7274455967
      295.0000000000        3.4620365676       -0.5349643938
      296.0000000000        3.0028016297       -0.3906412126
      297.0000000000        2.6684690871       -0.2832144114
      298.0000000000        2.4276725124       -0.2019742450
      299.0000000000        2.2585928439       -0.1385905997
      300.0000000000        2.1562758778       -0.0867777827
      301.0000000000        2.0922403721       -0.0421396829
      302.0000000000        2.0791839988       -0.0007328924
      303.0000000000        2.0989628961        0.0405634415
      304.0000000000        2.1614351055        0.0852497928
      305.0000000000        2.2717668856        0.1372447414
      306.0000000000        2.4398389619        0.2013865206
      307.0000000000        2.6805443926        0.2835517611
      308.0000000000        3.0149161580        0.3894976741
      309.0000000000        3.4677972695        0.5195890860
      310.0000000000        4.0558170938        0.6531306429
      311.0000000000        4.7520939392        0.7182236042
      312.0000000000        5.4253394917        0.5841749713
      313.0000000000        5.8309542306        0.1927291537
      314.0000000000        5.7930170721       -0.2487575014
      315.0000000000        5.4128648757       -0.4633906091
      316.0000000000        4.9534398992       -0.4305037981
      317.0000000000        4.5935811639       -0.2795067021
      318.0000000000        4.4020953547       -0.1033611564
      319.0000000000        4.3839478886        0.0648537166
