# IR Spectrum
# X-Axis:  Frequency (cm-1)
# Y-Axis:  Epsilon
#                  X                   Y               DY/DX
        0.0000000000        0.0581675634        0.0028325862
        1.0000000000        0.0611226119        0.0030825578
        2.0000000000        0.0643436168        0.0033653770
        3.0000000000        0.0678662444        0.0036868752
        4.0000000000        0.0717326247        0.0040542015
        5.0000000000        0.0783352100        0.0045055364
        6.0000000000        0.0830788475        0.0049937372
        7.0000000000        0.0883491387        0.0055614231
        8.0000000000        0.0942339724        0.0062261071
        9.0000000000        0.1008410870        0.0070102105
       10.0000000000        0.1083037713        0.0079427419
       11.0000000000        0.1167885637        0.0090616562
       12.0000000000        0.1265057755        0.0104172086
       13.0000000000        0.1381854232        0.0120825688
       14.0000000000        0.1512580381        0.0141378516
       15.0000000000        0.1666344941        0.0167148762
       16.0000000000        0.1849196423        0.0199898543
       17.0000000000        0.2069288388        0.0242122760
       18.0000000000        0.2337774297        0.0297396193
       19.0000000000        0.2670126678        0.0370883229
       20.0000000000        0.3088064474        0.0470046847
       21.0000000000        0.3622271640        0.0605492313
       22.0000000000        0.4315861519        0.0791465917
       23.0000000000        0.5227497404        0.1044141496
       24.0000000000        0.6458440379        0.1372213746
       25.0000000000        0.8016093386        0.1743154933
       26.0000000000        0.9912887669        0.2011424320
       27.0000000000        1.1895444639        0.1847223918
       28.0000000000        1.3353315162        0.0945042019
       29.0000000000        1.3640853585       -0.0366506220
       30.0000000000        1.2778446841       -0.1228399794
       31.0000000000        1.1450827024       -0.1313697689
       32.0000000000        1.0309560475       -0.0921223933
       33.0000000000        0.9660123201       -0.0366378562
       34.0000000000        0.9586329318        0.0220347993
       35.0000000000        1.0101588067        0.0808929546
       36.0000000000        1.1191685963        0.1355879480
       37.0000000000        1.2747441735        0.1699204278
       38.0000000000        1.4423232123        0.1547486201
       39.0000000000        1.5640821904        0.0816125636
       40.0000000000        1.6025848348       -0.0004824146
       41.0000000000        1.5762939324       -0.0459574554
       42.0000000000        1.5165827702       -0.0737096549
       43.0000000000        1.4264534958       -0.1066655742
       44.0000000000        1.3088031655       -0.1232054821
       45.0000000000        1.1938036038       -0.1039931271
       46.0000000000        1.1091769182       -0.0640038266
       47.0000000000        1.0643795685       -0.0278154667
       48.0000000000        1.0477283993       -0.0085573266
       49.0000000000        1.0415735857       -0.0064368260
       50.0000000000        1.0345145061       -0.0199372913
       51.0000000000        1.0043895848       -0.0394650150
       52.0000000000        0.9613703868       -0.0423145535
       53.0000000000        0.9281232924       -0.0208875447
       54.0000000000        0.9230441908        0.0106965236
       55.0000000000        0.9456353393        0.0306080009
       56.0000000000        0.9733250646        0.0184331787
       57.0000000000        0.9718915278       -0.0241144931
       58.0000000000        0.9314227607       -0.0620690088
       59.0000000000        0.8632954523       -0.0687135734
       60.0000000000        0.8024727308       -0.0501336571
       61.0000000000        0.7662535129       -0.0215554358
       62.0000000000        0.7600238426        0.0092337277
       63.0000000000        0.7850658863        0.0411536695
       64.0000000000        0.8433880105        0.0762868079
       65.0000000000        0.9398673266        0.1181304975
       66.0000000000        1.0834502556        0.1709721718
       67.0000000000        1.2870277264        0.2389604487
       68.0000000000        1.5667550420        0.3226965147
       69.0000000000        1.9337381538        0.4093102470
       70.0000000000        2.3720016995        0.4543387930
       71.0000000000        2.8025273450        0.3810849172
       72.0000000000        3.0844444067        0.1650851272
       73.0000000000        3.1264434050       -0.0694726426
       74.0000000000        2.9831540381       -0.1984235160
       75.0000000000        2.7516834716       -0.2618637416
       76.0000000000        2.4583444885       -0.3288148836
       77.0000000000        2.1037877065       -0.3713192357
       78.0000000000        1.7371082469       -0.3521884403
       79.0000000000        1.4129929149       -0.2925328515
       80.0000000000        1.1539638560       -0.2263794241
       81.0000000000        0.9582589615       -0.1701131457
       82.0000000000        0.8108604648       -0.1267231008
       83.0000000000        0.7011880179       -0.0941893245
       84.0000000000        0.6198219225       -0.0696516441
       85.0000000000        0.5600509205       -0.0506347893
       86.0000000000        0.5173569810       -0.0352183057
       87.0000000000        0.4889152329       -0.0219072228
       88.0000000000        0.4732573383       -0.0094545603
       89.0000000000        0.4701051670        0.0032961350
       90.0000000000        0.4803379493        0.0175118560
       91.0000000000        0.5059947411        0.0343097532
       92.0000000000        0.5537472988        0.0542472287
       93.0000000000        0.6186257282        0.0752690196
       94.0000000000        0.7019426153        0.0888786297
       95.0000000000        0.7894035911        0.0768769582
       96.0000000000        0.8434407862        0.0248797507
       97.0000000000        0.8326765041       -0.0454937912
       98.0000000000        0.7617138652       -0.0895687660
       99.0000000000        0.6668136262       -0.0949211044
      100.0000000000        0.5788008311       -0.0792984160
      101.0000000000        0.5095974391       -0.0591723716
      102.0000000000        0.4596290400       -0.0413527349
      103.0000000000        0.4256757743       -0.0271285637
      104.0000000000        0.4043637952       -0.0159209322
      105.0000000000        0.3931395673       -0.0068004081
      106.0000000000        0.3903504354        0.0010774605
      107.0000000000        0.3951157639        0.0084160748
      108.0000000000        0.4072072898        0.0158282377
      109.0000000000        0.4269948448        0.0239103406
      110.0000000000        0.4554700178        0.0333237584
      111.0000000000        0.4943561771        0.0448875199
      112.0000000000        0.5463202827        0.0596903079
      113.0000000000        0.6153067123        0.0792202145
      114.0000000000        0.7069943047        0.1054663201
      115.0000000000        0.8292711132        0.1407967427
      116.0000000000        0.9922467227        0.1869926690
      117.0000000000        1.2062923331        0.2419286012
      118.0000000000        1.4747489635        0.2921132773
      119.0000000000        1.7786591110        0.3066393430
      120.0000000000        2.0666612671        0.2592900436
      121.0000000000        2.2854992859        0.1777579606
      122.0000000000        2.4265298457        0.1056493665
      123.0000000000        2.4887870531        0.0091050375
      124.0000000000        2.4227211437       -0.1483810983
      125.0000000000        2.1967903515       -0.2913417567
      126.0000000000        1.8743572867       -0.3357450097
      127.0000000000        1.5584204120       -0.2978156031
      128.0000000000        1.2932950589       -0.2311145962
      129.0000000000        1.0951511050       -0.1667860599
      130.0000000000        0.9573763514       -0.1141541406
      131.0000000000        0.8642047629       -0.0743408215
      132.0000000000        0.8041214586       -0.0483215155
      133.0000000000        0.7622241006       -0.0381214301
      134.0000000000        0.7236963401       -0.0400809455
      135.0000000000        0.6821058760       -0.0421022887
      136.0000000000        0.6422393680       -0.0362766593
      137.0000000000        0.6115677358       -0.0244436555
      138.0000000000        0.5940044639       -0.0105615452
      139.0000000000        0.5905111455        0.0035717320
      140.0000000000        0.6011376843        0.0176692150
      141.0000000000        0.6257069832        0.0312713767
      142.0000000000        0.6627300690        0.0419014749
      143.0000000000        0.7067047715        0.0441391725
      144.0000000000        0.7469093454        0.0345568040
      145.0000000000        0.7746037320        0.0216112692
      146.0000000000        0.7939900321        0.0197484899
      147.0000000000        0.8191281670        0.0326765984
      148.0000000000        0.8627282412        0.0558505413
      149.0000000000        0.9331511241        0.0861152136
      150.0000000000        1.0373858907        0.1237100161
      151.0000000000        1.1835645573        0.1702216240
      152.0000000000        1.3806487864        0.2248922377
      153.0000000000        1.6328144297        0.2772374768
      154.0000000000        1.9268211465        0.2964861287
      155.0000000000        2.2022774131        0.2393940250
      156.0000000000        2.3813630588        0.1135171188
      157.0000000000        2.4389542221        0.0155904866
      158.0000000000        2.4486142358        0.0221003020
      159.0000000000        2.5135948884        0.1192702881
      160.0000000000        2.7031575189        0.2649493361
      161.0000000000        3.0481407956        0.4239846818
      162.0000000000        3.5381528694        0.5419984566
      163.0000000000        4.0832143805        0.5113659311
      164.0000000000        4.4753582633        0.2307034591
      165.0000000000        4.4928592661       -0.1968859653
      166.0000000000        4.1296182086       -0.4882877471
      167.0000000000        3.6021521214       -0.5301591083
      168.0000000000        3.1195283115       -0.4208468858
      169.0000000000        2.7730715548       -0.2715842242
      170.0000000000        2.5701120908       -0.1402939986
      171.0000000000        2.4758752960       -0.0585642893
      172.0000000000        2.4304560108       -0.0427904689
      173.0000000000        2.3769827854       -0.0653489065
      174.0000000000        2.3082879459       -0.0639229339
      175.0000000000        2.2884157802       -0.0104031618
      176.0000000000        2.3216688675        0.0819011672
      177.0000000000        2.4605240539        0.1995714154
      178.0000000000        2.7283766131        0.3399651197
      179.0000000000        3.1472804034        0.5000805004
      180.0000000000        3.7265011495        0.6519467978
      181.0000000000        4.4192297815        0.7051517684
      182.0000000000        5.0524030274        0.5082107477
      183.0000000000        5.3348788566        0.0221225884
      184.0000000000        5.0894789662       -0.4842993602
      185.0000000000        4.4617425147       -0.7176597204
      186.0000000000        3.7426544172       -0.6897778956
      187.0000000000        3.1175523433       -0.5531520552
      188.0000000000        2.6386060755       -0.4074537597
      189.0000000000        2.2938998058       -0.2860933051
      190.0000000000        2.0569236726       -0.1919999825
      191.0000000000        1.9027824777       -0.1192486279
      192.0000000000        1.8136030825       -0.0610078985
      193.0000000000        1.7778744674       -0.0114809899
      194.0000000000        1.7893180606        0.0340558155
      195.0000000000        1.8460235588        0.0797018807
      196.0000000000        1.9500883074        0.1294618608
      197.0000000000        2.1077864584        0.1877701061
      198.0000000000        2.3302414541        0.2599560342
      199.0000000000        2.6344461693        0.3523970985
      200.0000000000        3.0433715677        0.4714523711
      201.0000000000        3.5913977513        0.6187323082
      202.0000000000        4.2903937192        0.7784931840
      203.0000000000        5.1363886444        0.9026981337
      204.0000000000        6.0644604915        0.9365609157
      205.0000000000        7.0006180188        0.9227632448
      206.0000000000        7.9470044937        0.9888978642
      207.0000000000        8.9939217283        1.0911876866
      208.0000000000       10.0410560647        0.9304454952
      209.0000000000       10.6883507583        0.2927782656
      210.0000000000       10.5742764422       -0.4909590066
      211.0000000000        9.8546467588       -0.8507310608
      212.0000000000        9.0515572375       -0.6855676453
      213.0000000000        8.5751786209       -0.2430047767
      214.0000000000        8.5795968786        0.2431498950
      215.0000000000        9.0096882664        0.5711331460
      216.0000000000        9.5844492237        0.4894263509
      217.0000000000        9.8037626210       -0.1257811131
      218.0000000000        9.2729746014       -0.9114234375
      219.0000000000        8.1107967829       -1.3282354045
      220.0000000000        6.7684359507       -1.2998034004
      221.0000000000        5.5803141045       -1.0605853997
      222.0000000000        4.6553750760       -0.7929397104
      223.0000000000        3.9832445768       -0.5658513603
      224.0000000000        3.5084021446       -0.3928527496
      225.0000000000        3.1826357182       -0.2714380234
      226.0000000000        2.9545413720       -0.1895047213
      227.0000000000        2.7989826967       -0.1216351961
      228.0000000000        2.7141903628       -0.0456711433
      229.0000000000        2.7124916564        0.0446758524
      230.0000000000        2.8082723328        0.1492341899
      231.0000000000        3.0153196886        0.2665521450
      232.0000000000        3.3418074062        0.3840882675
      233.0000000000        3.7678985763        0.4575976133
      234.0000000000        4.2137973948        0.4070906090
      235.0000000000        4.5286828487        0.2035019704
      236.0000000000        4.6151449432       -0.0133652316
      237.0000000000        4.5563054311       -0.0728592726
      238.0000000000        4.5196601967        0.0142256190
      239.0000000000        4.5882305645        0.1117862117
      240.0000000000        4.7000881854        0.0837388253
      241.0000000000        4.7051570944       -0.0885161215
      242.0000000000        4.5274030242       -0.2486678015
      243.0000000000        4.2605161208       -0.2573846028
      244.0000000000        4.0579443420       -0.1314557314
      245.0000000000        4.0195206908        0.0617386041
      246.0000000000        4.1922428094        0.2883843912
      247.0000000000        4.6054994468        0.5425068014
      248.0000000000        5.2829605773        0.8120109698
      249.0000000000        6.2139010236        1.0309480087
      250.0000000000        7.2739420252        1.0354627683
      251.0000000000        8.1526839639        0.6540980439
      252.0000000000        8.4909325069        0.0107834083
      253.0000000000        8.2186917795       -0.5122894202
      254.0000000000        7.5471829657       -0.8019554921
      255.0000000000        6.6523213513       -0.9717989365
      256.0000000000        5.6455554078       -1.0158561731
      257.0000000000        4.6702389775       -0.9141039674
      258.0000000000        3.8410863663       -0.7395744253
      259.0000000000        3.1917658229       -0.5665200583
      260.0000000000        2.6989399358       -0.4250887225
      261.0000000000        2.3301490820       -0.3177242006
      262.0000000000        2.0543009107       -0.2379252449
      263.0000000000        1.8475727947       -0.1783574592
      264.0000000000        1.6928352015       -0.1330962683
      265.0000000000        1.5780724778       -0.0977997597
      266.0000000000        1.4949569551       -0.0693680871
      267.0000000000        1.4377974668       -0.0455718267
      268.0000000000        1.4028230071       -0.0247582978
      269.0000000000        1.3877190263       -0.0056369843
      270.0000000000        1.3913478871        0.0128782489
      271.0000000000        1.4141622279        0.0318000307
      272.0000000000        1.4559715628        0.0521496657
      273.0000000000        1.5193293206        0.0751116844
      274.0000000000        1.6075460308        0.1021419895
      275.0000000000        1.7255997037        0.1351548288
      276.0000000000        1.8807138224        0.1767774774
      277.0000000000        2.0832431076        0.2307182009
      278.0000000000        2.3480014401        0.3022884662
      279.0000000000        2.6961948601        0.3990837082
      280.0000000000        3.1580559197        0.5316434920
      281.0000000000        3.7751706846        0.7132587535
      282.0000000000        4.6044371787        0.9560085435
      283.0000000000        5.7066111596        1.2552253931
      284.0000000000        7.1129547034        1.5473064392
      285.0000000000        8.7362648041        1.6427553155
      286.0000000000       10.2349254222        1.2553531053
      287.0000000000       11.0662047537        0.3479974783
      288.0000000000       10.9154772030       -0.6091220572
      289.0000000000        9.9747019586       -1.2043771239
      290.0000000000        8.6257832431       -1.4422727716
      291.0000000000        7.1811042744       -1.4078777846
      292.0000000000        5.8693228566       -1.1971199298
      293.0000000000        4.8033391805       -0.9349222435
      294.0000000000        3.9895692120       -0.7001822794
      295.0000000000        3.3858652987       -0.5156658210
      296.0000000000        2.9428063568       -0.3772688738
      297.0000000000        2.6195976179       -0.2741045108
      298.0000000000        2.3862865003       -0.1959548252
      299.0000000000        2.2220157152       -0.1348916392
      300.0000000000        2.1230887098       -0.0849209681
      301.0000000000        2.0600944812       -0.0418897909
      302.0000000000        2.0459528924       -0.0020415876
      303.0000000000        2.0636038230        0.0375803777
      304.0000000000        2.1221323072        0.0802743174
      305.0000000000        2.2262781444        0.1297248346
      306.0000000000        2.3852262192        0.1904980146
      307.0000000000        2.6129248485        0.2682441155
      308.0000000000        2.9293833081        0.3689010649
      309.0000000000        3.3592200733        0.4945405002
      310.0000000000        3.9223051024        0.6302302715
      311.0000000000        4.6038971037        0.7160055798
      312.0000000000        5.2964265556        0.6283254760
      313.0000000000        5.7698228711        0.2782625312
      314.0000000000        5.8157800654       -0.1768029291
      315.0000000000        5.4832187469       -0.4411509481
      316.0000000000        5.0260129709       -0.4438063653
      317.0000000000        4.6453451419       -0.3048092730
      318.0000000000        4.4278384449       -0.1291523821
      319.0000000000        4.3847718605        0.0406612346
