# IR Spectrum
# X-Axis:  Frequency (cm-1)
# Y-Axis:  Epsilon
#                  X                   Y               DY/DX
        0.0000000000        0.0255956443        0.0007513291
        1.0000000000        0.0263675858        0.0007931220
        2.0000000000        0.0271830887        0.0008385182
        3.0000000000        0.0280459645        0.0008879439
        4.0000000000        0.0289604822        0.0009418895
        5.0000000000        0.0299314381        0.0010009217
        6.0000000000        0.0314324790        0.0010715497
        7.0000000000        0.0325391488        0.0011429454
        8.0000000000        0.0337208372        0.0012217484
        9.0000000000        0.0349854634        0.0013090111
       10.0000000000        0.0363420913        0.0014059770
       11.0000000000        0.0378011408        0.0015141226
       12.0000000000        0.0393746469        0.0016352111
       13.0000000000        0.0410765787        0.0017713610
       14.0000000000        0.0429232368        0.0019251331
       15.0000000000        0.0449337502        0.0020996446
       16.0000000000        0.0476615430        0.0023053500
       17.0000000000        0.0500784682        0.0025338313
       18.0000000000        0.0527409120        0.0027974813
       19.0000000000        0.0556875966        0.0031036942
       20.0000000000        0.0589655866        0.0034618531
       21.0000000000        0.0626325890        0.0038839880
       22.0000000000        0.0667600326        0.0043856926
       23.0000000000        0.0714372412        0.0049874188
       24.0000000000        0.0767771619        0.0057163286
       25.0000000000        0.0829243321        0.0066089763
       26.0000000000        0.0900661107        0.0077152395
       27.0000000000        0.0984487193        0.0091041373
       28.0000000000        0.1084004253        0.0108724864
       29.0000000000        0.1203653435        0.0131577360
       30.0000000000        0.1349528296        0.0161565800
       31.0000000000        0.1530088420        0.0201502436
       32.0000000000        0.1784959294        0.0255675250
       33.0000000000        0.2075249144        0.0328560187
       34.0000000000        0.2450301130        0.0426013676
       35.0000000000        0.2936187604        0.0549711168
       36.0000000000        0.3553971674        0.0684760829
       37.0000000000        0.4291333644        0.0774525881
       38.0000000000        0.5051880821        0.0712014246
       39.0000000000        0.5644450640        0.0446114013
       40.0000000000        0.5933730177        0.0152680402
       41.0000000000        0.6028023643        0.0084349825
       42.0000000000        0.6192451124        0.0281416188
       43.0000000000        0.6645425916        0.0643084229
       44.0000000000        0.7500037650        0.1068204605
       45.0000000000        0.8759792411        0.1422037649
       46.0000000000        1.0230882171        0.1431848490
       47.0000000000        1.1393869934        0.0768635161
       48.0000000000        1.1577363751       -0.0438400632
       49.0000000000        1.0593559935       -0.1429647814
       50.0000000000        0.8976916546       -0.1734693537
       51.0000000000        0.7307068608       -0.1555893451
       52.0000000000        0.5913178153       -0.1226197727
       53.0000000000        0.4846728357       -0.0916212113
       54.0000000000        0.4058443624       -0.0671722525
       55.0000000000        0.3482337135       -0.0489780928
       56.0000000000        0.3062873204       -0.0355918089
       57.0000000000        0.2759127770       -0.0256289807
       58.0000000000        0.2553793288       -0.0180098833
       59.0000000000        0.2404851413       -0.0119911558
       60.0000000000        0.2310554754       -0.0070016511
       61.0000000000        0.2262787445       -0.0026240995
       62.0000000000        0.2257155832        0.0014772230
       63.0000000000        0.2292412424        0.0056028832
       64.0000000000        0.2370309928        0.0100590135
       65.0000000000        0.2495860982        0.0151987466
       66.0000000000        0.2678039457        0.0214698678
       67.0000000000        0.2931000971        0.0294707212
       68.0000000000        0.3275866626        0.0400026727
       69.0000000000        0.3742804222        0.0540595893
       70.0000000000        0.4371940749        0.0725486695
       71.0000000000        0.5207988441        0.0951710845
       72.0000000000        0.6275038306        0.1173776889
       73.0000000000        0.7521104697        0.1255518488
       74.0000000000        0.8680484479        0.0993046803
       75.0000000000        0.9382031318        0.0371018239
       76.0000000000        0.9417891272       -0.0268558347
       77.0000000000        0.8936411013       -0.0645537452
       78.0000000000        0.8215775642       -0.0755245112
       79.0000000000        0.7510998265       -0.0642197713
       80.0000000000        0.6993625211       -0.0374224195
       81.0000000000        0.6786522057       -0.0032543238
       82.0000000000        0.6939686718        0.0343929039
       83.0000000000        0.7485397109        0.0753295147
       84.0000000000        0.8454951282        0.1186222245
       85.0000000000        0.9838274741        0.1554409072
       86.0000000000        1.1458205835        0.1600155698
       87.0000000000        1.2807028827        0.0964881046
       88.0000000000        1.3169816260       -0.0293219309
       89.0000000000        1.2272713598       -0.1406648061
       90.0000000000        1.0606399364       -0.1803485214
       91.0000000000        0.8851570314       -0.1647302667
       92.0000000000        0.7372874288       -0.1300796779
       93.0000000000        0.6245335587       -0.0963464765
       94.0000000000        0.5423011763       -0.0693203060
       95.0000000000        0.4836507564       -0.0489825987
       96.0000000000        0.4426038184       -0.0338451296
       97.0000000000        0.4147281018       -0.0224168872
       98.0000000000        0.3969245422       -0.0135359776
       99.0000000000        0.3870905428       -0.0063597642
      100.0000000000        0.3891030722       -0.0002176833
      101.0000000000        0.3916355396        0.0052043461
      102.0000000000        0.3994085143        0.0103147897
      103.0000000000        0.4149557519        0.0154351833
      104.0000000000        0.4330242134        0.0207641845
      105.0000000000        0.4566556089        0.0266088993
      106.0000000000        0.4865170781        0.0332812016
      107.0000000000        0.5236208106        0.0411657324
      108.0000000000        0.5694177563        0.0507635799
      109.0000000000        0.6259405900        0.0627470292
      110.0000000000        0.6960045413        0.0780174809
      111.0000000000        0.7834522233        0.0977223344
      112.0000000000        0.8933381826        0.1230751004
      113.0000000000        1.0316726561        0.1545480740
      114.0000000000        1.2037201781        0.1896542929
      115.0000000000        1.4106673979        0.2196279570
      116.0000000000        1.6382048246        0.2318265875
      117.0000000000        1.8688788865        0.2288921957
      118.0000000000        2.1051526613        0.2417559887
      119.0000000000        2.3729122539        0.3036627111
      120.0000000000        2.7332658637        0.4274797876
      121.0000000000        3.2482882180        0.6125140438
      122.0000000000        3.9822739869        0.8536477652
      123.0000000000        4.9710760265        1.1235886706
      124.0000000000        6.2059582318        1.3179348934
      125.0000000000        7.5028841628        1.1981577816
      126.0000000000        8.4135737670        0.5290745038
      127.0000000000        8.4427263218       -0.4757526625
      128.0000000000        7.5649837311       -1.1889619200
      129.0000000000        6.2549656949       -1.3500803737
      130.0000000000        4.9757272466       -1.1774302047
      131.0000000000        3.9269483985       -0.9189794280
      132.0000000000        3.1279545430       -0.6871805106
      133.0000000000        2.5347886577       -0.5078810597
      134.0000000000        2.0963804703       -0.3758666001
      135.0000000000        1.7711827445       -0.2795298168
      136.0000000000        1.5289372199       -0.2084340235
      137.0000000000        1.3485556828       -0.1546890462
      138.0000000000        1.2156913873       -0.1125983127
      139.0000000000        1.1208691869       -0.0780088104
      140.0000000000        1.0582420113       -0.0477308652
      141.0000000000        1.0248685061       -0.0190735522
      142.0000000000        1.0204092742        0.0105335182
      143.0000000000        1.0471664539        0.0438461520
      144.0000000000        1.1103648918        0.0839521032
      145.0000000000        1.2183571407        0.1338584615
      146.0000000000        1.3816773891        0.1942819320
      147.0000000000        1.6091650028        0.2568263718
      148.0000000000        1.8872344472        0.2900222283
      149.0000000000        2.1589973523        0.2330079966
      150.0000000000        2.3096532634        0.0502055227
      151.0000000000        2.2457279155       -0.1712946323
      152.0000000000        2.0014355077       -0.2949168706
      153.0000000000        1.6963305052       -0.3000191389
      154.0000000000        1.4224497920       -0.2471761004
      155.0000000000        1.2069499530       -0.1843798407
      156.0000000000        1.0508208412       -0.1297059989
      157.0000000000        0.9439417288       -0.0856785999
      158.0000000000        0.8767531618       -0.0497614897
      159.0000000000        0.8428795243       -0.0184720733
      160.0000000000        0.8393568152        0.0114393945
      161.0000000000        0.8661603986        0.0425012603
      162.0000000000        0.9249919514        0.0752939451
      163.0000000000        1.0158346237        0.1049553185
      164.0000000000        1.1286557122        0.1154487725
      165.0000000000        1.2319652139        0.0823872460
      166.0000000000        1.2781277952        0.0056004201
      167.0000000000        1.2452113243       -0.0653379909
      168.0000000000        1.1646425620       -0.0868404794
      169.0000000000        1.0859606332       -0.0654991224
      170.0000000000        1.0398740876       -0.0250022130
      171.0000000000        1.0379133880        0.0210757519
      172.0000000000        1.0824192597        0.0677062352
      173.0000000000        1.1715641846        0.1086593367
      174.0000000000        1.2922574087        0.1266732962
      175.0000000000        1.4079357381        0.0945109207
      176.0000000000        1.4630507699        0.0101330457
      177.0000000000        1.4290694801       -0.0717986967
      178.0000000000        1.3382054174       -0.0999286514
      179.0000000000        1.2454030884       -0.0800816265
      180.0000000000        1.1847372199       -0.0396191011
      181.0000000000        1.1675849517        0.0055234591
      182.0000000000        1.1960633719        0.0516850266
      183.0000000000        1.2723434264        0.1011448054
      184.0000000000        1.4013420446        0.1586808425
      185.0000000000        1.5944657828        0.2305325504
      186.0000000000        1.8695420300        0.3237534257
      187.0000000000        2.2509569900        0.4436160002
      188.0000000000        2.7640583504        0.5842348003
      189.0000000000        3.4134406283        0.7044084787
      190.0000000000        4.1299979821        0.6938500485
      191.0000000000        4.7076969644        0.4091425276
      192.0000000000        4.8658668186       -0.1103865660
      193.0000000000        4.5154943650       -0.5491101260
      194.0000000000        3.8692829990       -0.6948366878
      195.0000000000        3.1979893988       -0.6253070858
      196.0000000000        2.6416069885       -0.4840920315
      197.0000000000        2.2278883268       -0.3468001953
      198.0000000000        1.9395995109       -0.2340731281
      199.0000000000        1.7520080790       -0.1443971611
      200.0000000000        1.6453397749       -0.0704796864
      201.0000000000        1.6081802809       -0.0045482773
      202.0000000000        1.6360197964        0.0607067172
      203.0000000000        1.7317353754        0.1323883211
      204.0000000000        1.9052772664        0.2174695731
      205.0000000000        2.1729307065        0.3210673947
      206.0000000000        2.5575085702        0.4393916710
      207.0000000000        3.0516562733        0.5409873308
      208.0000000000        3.6057575577        0.5418454032
      209.0000000000        4.0639082175        0.3352815181
      210.0000000000        4.2164521919       -0.0415561704
      211.0000000000        4.0067221754       -0.3446970974
      212.0000000000        3.6072174805       -0.4162690289
      213.0000000000        3.2314566720       -0.3169129220
      214.0000000000        2.9930644288       -0.1567566052
      215.0000000000        2.9144190000       -0.0067718872
      216.0000000000        2.9572566533        0.0759116715
      217.0000000000        3.0233306984        0.0319606698
      218.0000000000        2.9797674606       -0.1309937917
      219.0000000000        2.7640880201       -0.2868247937
      220.0000000000        2.4443942938       -0.3329699978
      221.0000000000        2.1284818873       -0.2890591483
      222.0000000000        1.8766715373       -0.2128233322
      223.0000000000        1.7026026080       -0.1364747954
      224.0000000000        1.6009105639       -0.0682483538
      225.0000000000        1.5657983099       -0.0059756197
      226.0000000000        1.5904053465        0.0555457128
      227.0000000000        1.6784933319        0.1218181457
      228.0000000000        1.8368041270        0.1961409334
      229.0000000000        2.0720994699        0.2737676301
      230.0000000000        2.3774290435        0.3295177061
      231.0000000000        2.7059724182        0.3099165489
      232.0000000000        2.9583806526        0.1780971158
      233.0000000000        3.0484919469        0.0080435646
      234.0000000000        3.0074391042       -0.0679909925
      235.0000000000        2.9547126228       -0.0277204104
      236.0000000000        2.9654567346        0.0459501794
      237.0000000000        3.0235486125        0.0519039615
      238.0000000000        3.0321559941       -0.0589697618
      239.0000000000        2.8942053466       -0.2123350836
      240.0000000000        2.6350440778       -0.2876211368
      241.0000000000        2.3521327170       -0.2657842941
      242.0000000000        2.1186362990       -0.1977135209
      243.0000000000        1.9586116415       -0.1230007341
      244.0000000000        1.8700338257       -0.0556887811
      245.0000000000        1.8443599231        0.0030904982
      246.0000000000        1.8741119915        0.0555121281
      247.0000000000        1.9536499067        0.1026586251
      248.0000000000        2.0768648986        0.1443355131
      249.0000000000        2.2411398488        0.1849557924
      250.0000000000        2.4509972843        0.2382183273
      251.0000000000        2.7264598314        0.3178406201
      252.0000000000        3.0979018518        0.4311692486
      253.0000000000        3.6025313978        0.5858922759
      254.0000000000        4.2876419049        0.7945501313
      255.0000000000        5.2141836277        1.0704199984
      256.0000000000        6.4503992073        1.4101509129
      257.0000000000        8.0355800869        1.7484873598
      258.0000000000        9.8823321120        1.8865295587
      259.0000000000       11.6382250414        1.5213332066
      260.0000000000       12.7325258650        0.6002450095
      261.0000000000       12.7990342187       -0.4435789082
      262.0000000000       11.9413593911       -1.2106962926
      263.0000000000       10.5125826859       -1.5748973967
      264.0000000000        8.9297608651       -1.5315460659
      265.0000000000        7.5338877618       -1.2356412244
      266.0000000000        6.4797127617       -0.8722358319
      267.0000000000        5.7803815708       -0.5333674989
      268.0000000000        5.3992482180       -0.2347346544
      269.0000000000        5.3028085250        0.0397880999
      270.0000000000        5.4786942546        0.3137664916
      271.0000000000        5.9365324330        0.6056834814
      272.0000000000        6.6958597201        0.9135012050
      273.0000000000        7.7544329497        1.1923105320
      274.0000000000        9.0423493464        1.3577921537
      275.0000000000       10.4117480397        1.3499457568
      276.0000000000       11.6735925661        1.1346310509
      277.0000000000       12.6033822968        0.6976682134
      278.0000000000       13.0679068511        0.2603750170
      279.0000000000       13.2034067619        0.0397013491
      280.0000000000       13.1333143359       -0.2259907524
      281.0000000000       12.6218854218       -0.8541673403
      282.0000000000       11.3965225489       -1.5589077704
      283.0000000000        9.6511128770       -1.8444416513
      284.0000000000        7.8554574542       -1.6953808373
      285.0000000000        6.3173478631       -1.3709772100
      286.0000000000        5.1110574577       -1.0496910197
      287.0000000000        4.1915493058       -0.7903399680
      288.0000000000        3.5034880903       -0.5955804861
      289.0000000000        2.9832822653       -0.4521527385
      290.0000000000        2.5937204731       -0.3460076460
      291.0000000000        2.2893991685       -0.2662700988
      292.0000000000        2.0551101628       -0.2048190848
      293.0000000000        1.8755966031       -0.1559127304
      294.0000000000        1.7405063515       -0.1153737673
      295.0000000000        1.6431293765       -0.0800117145
      296.0000000000        1.5853772501       -0.0471092365
      297.0000000000        1.5545494959       -0.0143519376
      298.0000000000        1.5575044957        0.0209124985
      299.0000000000        1.5981979149        0.0616667238
      300.0000000000        1.6838355066        0.1114220317
      301.0000000000        1.8252496762        0.1737386724
      302.0000000000        2.0359751820        0.2497455459
      303.0000000000        2.3266149575        0.3305378487
      304.0000000000        2.6877427180        0.3821092840
      305.0000000000        3.0594305096        0.3401496555
      306.0000000000        3.3246019571        0.1734402271
      307.0000000000        3.4032649048       -0.0140494714
      308.0000000000        3.3455271000       -0.0739782017
      309.0000000000        3.3048042041        0.0115070625
      310.0000000000        3.3918482966        0.1668692647
      311.0000000000        3.6303854017        0.3004098185
      312.0000000000        3.9466475368        0.2993150570
      313.0000000000        4.1512962304        0.0719688567
      314.0000000000        4.0435185450       -0.2894361995
      315.0000000000        3.6121480096       -0.5386675389
      316.0000000000        3.0378186277       -0.5799023301
      317.0000000000        2.4928616800       -0.4990435945
      318.0000000000        2.0485597502       -0.3896832093
      319.0000000000        1.7088746120       -0.2931412045
