# IR Spectrum
# X-Axis:  Frequency (cm-1)
# Y-Axis:  Epsilon
#                  X                   Y               DY/DX
        0.0000000000        0.0252885661        0.0007495789
        1.0000000000        0.0260589636        0.0007917974
        2.0000000000        0.0268733901        0.0008377054
        3.0000000000        0.0277357508        0.0008877448
        4.0000000000        0.0286504255        0.0009424246
        5.0000000000        0.0296223420        0.0010023337
        6.0000000000        0.0306570628        0.0010681562
        7.0000000000        0.0317608899        0.0011406896
        8.0000000000        0.0329409887        0.0012208684
        9.0000000000        0.0342055394        0.0013097920
       10.0000000000        0.0355639185        0.0014087612
       11.0000000000        0.0370269222        0.0015193219
       12.0000000000        0.0386070381        0.0016433225
       13.0000000000        0.0403187830        0.0017829857
       14.0000000000        0.0426809800        0.0019472983
       15.0000000000        0.0447162023        0.0021270606
       16.0000000000        0.0469436403        0.0023324712
       17.0000000000        0.0493913360        0.0025684958
       18.0000000000        0.0520928814        0.0028413212
       19.0000000000        0.0550888139        0.0031587218
       20.0000000000        0.0584284397        0.0035305576
       21.0000000000        0.0624382707        0.0039727827
       22.0000000000        0.0666644875        0.0044951572
       23.0000000000        0.0714634467        0.0051223450
       24.0000000000        0.0769534607        0.0058827005
       25.0000000000        0.0832857703        0.0068142730
       26.0000000000        0.0906561137        0.0079688088
       27.0000000000        0.0993211817        0.0094176556
       28.0000000000        0.1096223200        0.0112605457
       29.0000000000        0.1220200247        0.0136386832
       30.0000000000        0.1371444597        0.0167540457
       31.0000000000        0.1558692176        0.0208968201
       32.0000000000        0.1794166430        0.0264805348
       33.0000000000        0.2094983080        0.0340734268
       34.0000000000        0.2484671040        0.0443757708
       35.0000000000        0.3027193083        0.0580184579
       36.0000000000        0.3688124427        0.0744837851
       37.0000000000        0.4514540470        0.0900127057
       38.0000000000        0.5451331169        0.0942381489
       39.0000000000        0.6315793146        0.0740402897
       40.0000000000        0.6864415486        0.0347246171
       41.0000000000        0.7054644218        0.0082016700
       42.0000000000        0.7144741229        0.0153820112
       43.0000000000        0.7446792452        0.0476311135
       44.0000000000        0.8113343346        0.0845118416
       45.0000000000        0.9065545520        0.0996370499
       46.0000000000        0.9928673208        0.0624597115
       47.0000000000        1.0129946991       -0.0276520149
       48.0000000000        0.9389015163       -0.1140985576
       49.0000000000        0.8032659524       -0.1475934854
       50.0000000000        0.6587208249       -0.1365879809
       51.0000000000        0.5372366247       -0.1092703768
       52.0000000000        0.4418329706       -0.0822386948
       53.0000000000        0.3709387239       -0.0605209587
       54.0000000000        0.3189634287       -0.0442519911
       55.0000000000        0.2810061221       -0.0322709115
       56.0000000000        0.2533950190       -0.0233791301
       57.0000000000        0.2335344918       -0.0166362530
       58.0000000000        0.2196356078       -0.0113605552
       59.0000000000        0.2104880752       -0.0070651160
       60.0000000000        0.2069104439       -0.0033748199
       61.0000000000        0.2052136634       -0.0000579362
       62.0000000000        0.2067520998        0.0031309806
       63.0000000000        0.2115024318        0.0064006323
       64.0000000000        0.2196526287        0.0099693062
       65.0000000000        0.2316252244        0.0140928584
       66.0000000000        0.2481310907        0.0190984078
       67.0000000000        0.2702612543        0.0254271019
       68.0000000000        0.2996258793        0.0336845812
       69.0000000000        0.3385406746        0.0446788245
       70.0000000000        0.3902150039        0.0593620992
       71.0000000000        0.4587381143        0.0784176840
       72.0000000000        0.5482364735        0.1008803630
       73.0000000000        0.6598578335        0.1211498520
       74.0000000000        0.7856597109        0.1267505219
       75.0000000000        0.9057941774        0.1059823778
       76.0000000000        0.9911690297        0.0617720865
       77.0000000000        1.0248713252        0.0041654295
       78.0000000000        0.9997175525       -0.0520349996
       79.0000000000        0.9311888951       -0.0794875932
       80.0000000000        0.8542673361       -0.0689168363
       81.0000000000        0.8010532201       -0.0351134615
       82.0000000000        0.7869376446        0.0077358548
       83.0000000000        0.8178284697        0.0546437253
       84.0000000000        0.8973969587        0.1049664818
       85.0000000000        1.0277001402        0.1546500456
       86.0000000000        1.2007899156        0.1857888453
       87.0000000000        1.3802693807        0.1599159310
       88.0000000000        1.4909463785        0.0480770141
       89.0000000000        1.4631907182       -0.1012831086
       90.0000000000        1.3085685250       -0.1934751677
       91.0000000000        1.1041833137       -0.2042639477
       92.0000000000        0.9142732926       -0.1719231633
       93.0000000000        0.7629601239       -0.1309537023
       94.0000000000        0.6504268399       -0.0954401959
       95.0000000000        0.5693456892       -0.0680211505
       96.0000000000        0.5120700584       -0.0475317618
       97.0000000000        0.4725820269       -0.0321538364
       98.0000000000        0.4465840337       -0.0203245785
       99.0000000000        0.4311444572       -0.0108712561
      100.0000000000        0.4243363735       -0.0029406563
      101.0000000000        0.4249679159        0.0040997854
      102.0000000000        0.4414932017        0.0108601671
      103.0000000000        0.4556740114        0.0175406759
      104.0000000000        0.4767216057        0.0246635020
      105.0000000000        0.5052960092        0.0326742562
      106.0000000000        0.5425427797        0.0421080185
      107.0000000000        0.5902128021        0.0536513352
      108.0000000000        0.6508464948        0.0682064197
      109.0000000000        0.7280091362        0.0869167005
      110.0000000000        0.8292910516        0.1110376629
      111.0000000000        0.9548524451        0.1410010285
      112.0000000000        1.1124797720        0.1742742791
      113.0000000000        1.3013193826        0.2009700952
      114.0000000000        1.5064401015        0.2041108924
      115.0000000000        1.7002083464        0.1809012109
      116.0000000000        1.8713807554        0.1673057523
      117.0000000000        2.0519844675        0.2035456998
      118.0000000000        2.2960344314        0.2919076735
      119.0000000000        2.6521643654        0.4170574959
      120.0000000000        3.1452927050        0.5755150468
      121.0000000000        3.8179636175        0.7775488680
      122.0000000000        4.7108492594        1.0078778952
      123.0000000000        5.8093706421        1.1602600635
      124.0000000000        6.9282929000        1.0031213387
      125.0000000000        7.6442976164        0.3494004780
      126.0000000000        7.5461964872       -0.5427121342
      127.0000000000        6.6745357925       -1.1156639478
      128.0000000000        5.4806594743       -1.2053103051
      129.0000000000        4.3514101647       -1.0302898226
      130.0000000000        3.4375913392       -0.7982063024
      131.0000000000        2.7447575368       -0.5961444485
      132.0000000000        2.2297587576       -0.4415468310
      133.0000000000        1.8478685116       -0.3282422233
      134.0000000000        1.5630062765       -0.2458044664
      135.0000000000        1.3490021912       -0.1852198814
      136.0000000000        1.1875364721       -0.1397903830
      137.0000000000        1.0659712204       -0.1047569866
      138.0000000000        0.9756938557       -0.0767392308
      139.0000000000        0.9109850693       -0.0532625008
      140.0000000000        0.8683001462       -0.0324008945
      141.0000000000        0.8458623162       -0.0125036792
      142.0000000000        0.8435042841        0.0080336599
      143.0000000000        0.8627301220        0.0309853665
      144.0000000000        0.9082053455        0.0585247284
      145.0000000000        0.9833964510        0.0933243368
      146.0000000000        1.0983184823        0.1384992371
      147.0000000000        1.2646380591        0.1962464448
      148.0000000000        1.4948772573        0.2631730607
      149.0000000000        1.7883173478        0.3184356836
      150.0000000000        2.1102444646        0.3082982391
      151.0000000000        2.3600799504        0.1668758156
      152.0000000000        2.4072053302       -0.0792644670
      153.0000000000        2.2180080291       -0.2788598263
      154.0000000000        1.8972988203       -0.3404041680
      155.0000000000        1.5694795130       -0.3054667514
      156.0000000000        1.2959463488       -0.2404382374
      157.0000000000        1.0871106367       -0.1790709974
      158.0000000000        0.9334837222       -0.1303823003
      159.0000000000        0.8223047703       -0.0937595024
      160.0000000000        0.7429137066       -0.0662991579
      161.0000000000        0.6875966019       -0.0451894906
      162.0000000000        0.6511670998       -0.0282000314
      163.0000000000        0.6303999674       -0.0136109493
      164.0000000000        0.6239391451       -0.0000195297
      165.0000000000        0.6307711000        0.0138324461
      166.0000000000        0.6521218052        0.0292422995
      167.0000000000        0.6902439498        0.0476183998
      168.0000000000        0.7488146607        0.0703393720
      169.0000000000        0.8325628285        0.0978718124
      170.0000000000        0.9451881700        0.1269817610
      171.0000000000        1.0829930582        0.1449784696
      172.0000000000        1.2230294825        0.1267748940
      173.0000000000        1.3186783941        0.0570490356
      174.0000000000        1.3315263128       -0.0284101859
      175.0000000000        1.2768164552       -0.0711619614
      176.0000000000        1.2073673078       -0.0606618653
      177.0000000000        1.1646806844       -0.0223439214
      178.0000000000        1.1640105791        0.0202078998
      179.0000000000        1.2007816678        0.0497873113
      180.0000000000        1.2540742583        0.0513346255
      181.0000000000        1.2941111224        0.0261138999
      182.0000000000        1.3074316915        0.0040977659
      183.0000000000        1.3125082428        0.0114817162
      184.0000000000        1.3395672499        0.0461541679
      185.0000000000        1.4105052479        0.0970505433
      186.0000000000        1.5379837342        0.1599988814
      187.0000000000        1.7354807849        0.2380102657
      188.0000000000        2.0213441917        0.3380785882
      189.0000000000        2.4216180559        0.4679152447
      190.0000000000        2.9677253256        0.6286046447
      191.0000000000        3.6812389159        0.7943062336
      192.0000000000        4.5283236950        0.8725295822
      193.0000000000        5.3388522846        0.6901167143
      194.0000000000        5.7872390413        0.1581960083
      195.0000000000        5.6239773545       -0.4620890003
      196.0000000000        4.9638466432       -0.7950449007
      197.0000000000        4.1455992272       -0.8000154750
      198.0000000000        3.4146827007       -0.6497860764
      199.0000000000        2.8533668076       -0.4745751745
      200.0000000000        2.4622412665       -0.3219201346
      201.0000000000        2.2045983486       -0.1975903023
      202.0000000000        2.0602413892       -0.0936584648
      203.0000000000        2.0139853782        0.0003672007
      204.0000000000        2.0610626825        0.0946075036
      205.0000000000        2.2061478175        0.1975407276
      206.0000000000        2.4602439226        0.3122654326
      207.0000000000        2.8299023331        0.4249464553
      208.0000000000        3.2918174776        0.4823649251
      209.0000000000        3.7434012301        0.3874233946
      210.0000000000        3.9997532028        0.1001331500
      211.0000000000        3.9322727533       -0.2190845169
      212.0000000000        3.6231572703       -0.3621877751
      213.0000000000        3.2726253900       -0.3146571245
      214.0000000000        3.0250905188       -0.1718734289
      215.0000000000        2.9369317555       -0.0036591783
      216.0000000000        3.0143646474        0.1540298749
      217.0000000000        3.2273882813        0.2574365672
      218.0000000000        3.4851788466        0.2290058783
      219.0000000000        3.6248044361        0.0194879256
      220.0000000000        3.5017222009       -0.2593814675
      221.0000000000        3.1485399551       -0.4176194333
      222.0000000000        2.7210386770       -0.4163203774
      223.0000000000        2.3425656645       -0.3339913989
      224.0000000000        2.0576967728       -0.2362468270
      225.0000000000        1.8666928134       -0.1479456637
      226.0000000000        1.7576797530       -0.0718050567
      227.0000000000        1.7206414132       -0.0029407046
      228.0000000000        1.7516181069        0.0653833402
      229.0000000000        1.8573536173        0.1399786392
      230.0000000000        2.0392287500        0.2258662789
      231.0000000000        2.3125179189        0.3214263619
      232.0000000000        2.6785674273        0.4050940199
      233.0000000000        3.0995519414        0.4183287987
      234.0000000000        3.4666511731        0.2893945498
      235.0000000000        3.6385232955        0.0467519921
      236.0000000000        3.5739335272       -0.1578053706
      237.0000000000        3.3601400768       -0.2553240438
      238.0000000000        3.0830282235       -0.3016381146
      239.0000000000        2.7689831392       -0.3199767030
      240.0000000000        2.4591868562       -0.2915731276
      241.0000000000        2.1979044230       -0.2274716453
      242.0000000000        2.0068584848       -0.1549734789
      243.0000000000        1.8855688319       -0.0892180891
      244.0000000000        1.8251866134       -0.0330165055
      245.0000000000        1.8171153997        0.0159462898
      246.0000000000        1.8557650978        0.0609373199
      247.0000000000        1.9385039478        0.1044119976
      248.0000000000        2.0643947064        0.1472758002
      249.0000000000        2.2322500352        0.1902657018
      250.0000000000        2.4459431560        0.2389568597
      251.0000000000        2.7160372563        0.3051872178
      252.0000000000        3.0657668439        0.3996412095
      253.0000000000        3.5273701938        0.5303762625
      254.0000000000        4.1422977064        0.7086647683
      255.0000000000        4.9662485755        0.9517304404
      256.0000000000        6.0741169250        1.2795790807
      257.0000000000        7.5568437578        1.7000477870
      258.0000000000        9.4900188513        2.1628050669
      259.0000000000       11.8302314765        2.4596541602
      260.0000000000       14.2072219799        2.1499138360
      261.0000000000       15.8016411705        0.8891152425
      262.0000000000       15.8353093238       -0.7959786865
      263.0000000000       14.4414493712       -1.8216471882
      264.0000000000       12.5219342235       -1.8841569430
      265.0000000000       10.8506121523       -1.4101004795
      266.0000000000        9.7415801155       -0.8091612803
      267.0000000000        9.2008687018       -0.3010304989
      268.0000000000        9.0555014645       -0.0447050589
      269.0000000000        8.9871332289       -0.1521243650
      270.0000000000        8.6726784221       -0.4850160828
      271.0000000000        8.0649808253       -0.6835419506
      272.0000000000        7.4072616592       -0.5870065804
      273.0000000000        6.9563732732       -0.2937800484
      274.0000000000        6.8451066522        0.0780849848
      275.0000000000        7.1187238189        0.4685533135
      276.0000000000        7.7688809990        0.8170652317
      277.0000000000        8.6918318944        0.9797648392
      278.0000000000        9.5921704283        0.7404550323
      279.0000000000       10.0331361987        0.1022686213
      280.0000000000        9.8171324921       -0.4772738919
      281.0000000000        9.2378377277       -0.5992334889
      282.0000000000        8.7526697118       -0.3535393067
      283.0000000000        8.5566657065       -0.0572858780
      284.0000000000        8.5527812339       -0.0121068758
      285.0000000000        8.4018217267       -0.3435884949
      286.0000000000        7.8182257404       -0.7979110420
      287.0000000000        6.8942376573       -1.0037931444
      288.0000000000        5.9146998799       -0.9202468639
      289.0000000000        5.0902810473       -0.7251080820
      290.0000000000        4.4511771040       -0.5663941229
      291.0000000000        3.9286986445       -0.4905004543
      292.0000000000        3.4581097572       -0.4505827304
      293.0000000000        3.0351504190       -0.3901393388
      294.0000000000        2.6860128019       -0.3057968464
      295.0000000000        2.4250025892       -0.2166692394
      296.0000000000        2.2508241628       -0.1327289405
      297.0000000000        2.1579569987       -0.0534095313
      298.0000000000        2.1441950937        0.0264977472
      299.0000000000        2.2182076822        0.1127939507
      300.0000000000        2.3776755172        0.2071511831
      301.0000000000        2.6316448342        0.2979084440
      302.0000000000        2.9591646305        0.3445584613
      303.0000000000        3.2844975796        0.2842428492
      304.0000000000        3.4888660938        0.1127896089
      305.0000000000        3.5105559221       -0.0588754118
      306.0000000000        3.3970034735       -0.1586861139
      307.0000000000        3.1976905178       -0.2433907459
      308.0000000000        2.9044098176       -0.3413810660
      309.0000000000        2.5316646558       -0.3910873458
      310.0000000000        2.1482676674       -0.3651935136
      311.0000000000        1.8144443892       -0.2995080269
      312.0000000000        1.5488872284       -0.2301844640
      313.0000000000        1.3489791484       -0.1718159375
      314.0000000000        1.2010286536       -0.1260065427
      315.0000000000        1.0936658047       -0.0900856032
      316.0000000000        1.0186745226       -0.0607279424
      317.0000000000        0.9710180295       -0.0349640275
      318.0000000000        0.9483598959       -0.0103873357
      319.0000000000        0.9503577980        0.0144607325
