# IR Spectrum
# X-Axis:  Frequency (cm-1)
# Y-Axis:  Epsilon
#                  X                   Y               DY/DX
        0.0000000000        0.0260383373        0.0007678790
        1.0000000000        0.0268274721        0.0008109820
        2.0000000000        0.0276615520        0.0008578388
        3.0000000000        0.0285445493        0.0009088968
        4.0000000000        0.0294809170        0.0009646717
        5.0000000000        0.0304756626        0.0010257594
        6.0000000000        0.0315344361        0.0010928517
        7.0000000000        0.0326636348        0.0011667548
        8.0000000000        0.0338705288        0.0012484125
        9.0000000000        0.0351634124        0.0013389348
       10.0000000000        0.0370728285        0.0014461492
       11.0000000000        0.0385742061        0.0015587075
       12.0000000000        0.0401947730        0.0016848669
       13.0000000000        0.0419492145        0.0018268656
       14.0000000000        0.0438546798        0.0019874105
       15.0000000000        0.0459313076        0.0021697964
       16.0000000000        0.0482028892        0.0023780635
       17.0000000000        0.0506977119        0.0026172028
       18.0000000000        0.0534496402        0.0028934308
       19.0000000000        0.0564995169        0.0032145582
       20.0000000000        0.0603491053        0.0035961720
       21.0000000000        0.0641608019        0.0040397082
       22.0000000000        0.0684564425        0.0045671743
       23.0000000000        0.0733302251        0.0052000947
       24.0000000000        0.0789011905        0.0059670124
       25.0000000000        0.0853215457        0.0069062724
       26.0000000000        0.0927883716        0.0080700931
       27.0000000000        0.1015603059        0.0095305799
       28.0000000000        0.1119816046        0.0113886652
       29.0000000000        0.1245171730        0.0137873776
       30.0000000000        0.1398037549        0.0169311869
       31.0000000000        0.1587241102        0.0211126992
       32.0000000000        0.1825108232        0.0267440489
       33.0000000000        0.2128774567        0.0343744885
       34.0000000000        0.2551817810        0.0446616577
       35.0000000000        0.3062039438        0.0578509594
       36.0000000000        0.3715209308        0.0728207688
       37.0000000000        0.4507913620        0.0843987561
       38.0000000000        0.5355680726        0.0817528944
       39.0000000000        0.6067761907        0.0574506287
       40.0000000000        0.6481837576        0.0268971513
       41.0000000000        0.6682407782        0.0184122032
       42.0000000000        0.6951219809        0.0395966515
       43.0000000000        0.7534779386        0.0788575552
       44.0000000000        0.8534702872        0.1197488562
       45.0000000000        0.9854374249        0.1374998906
       46.0000000000        1.1088537612        0.0971528400
       47.0000000000        1.1567797460       -0.0091219150
       48.0000000000        1.0890086374       -0.1200094396
       49.0000000000        0.9379910106       -0.1701929554
       50.0000000000        0.7680700676       -0.1629513593
       51.0000000000        0.6196895271       -0.1323093925
       52.0000000000        0.5054735398       -0.1002416364
       53.0000000000        0.4188722902       -0.0741015641
       54.0000000000        0.3550798649       -0.0544820720
       55.0000000000        0.3081606683       -0.0401045313
       56.0000000000        0.2736032064       -0.0295407209
       57.0000000000        0.2481913810       -0.0216511670
       58.0000000000        0.2296874210       -0.0156100340
       59.0000000000        0.2165514072       -0.0108341578
       60.0000000000        0.2092608111       -0.0068896765
       61.0000000000        0.2040958184       -0.0035101175
       62.0000000000        0.2021375755       -0.0004407742
       63.0000000000        0.2031772754        0.0025171905
       64.0000000000        0.2071969644        0.0055505392
       65.0000000000        0.2143690169        0.0088570519
       66.0000000000        0.2250792819        0.0126703671
       67.0000000000        0.2399773431        0.0172898482
       68.0000000000        0.2600599676        0.0231170249
       69.0000000000        0.2867924767        0.0306927437
       70.0000000000        0.3222563277        0.0407029094
       71.0000000000        0.3692462417        0.0538418976
       72.0000000000        0.4310474247        0.0702389410
       73.0000000000        0.5102188366        0.0879750693
       74.0000000000        0.6055172241        0.1011603770
       75.0000000000        0.7083275938        0.1019750619
       76.0000000000        0.8048019793        0.0889788460
       77.0000000000        0.8831687294        0.0634015994
       78.0000000000        0.9259629823        0.0188565817
       79.0000000000        0.9179003260       -0.0335244562
       80.0000000000        0.8678273457       -0.0602228180
       81.0000000000        0.8114755534       -0.0498666357
       82.0000000000        0.7769887302       -0.0166908775
       83.0000000000        0.7811689044        0.0260298973
       84.0000000000        0.8305191629        0.0732379802
       85.0000000000        0.9282074594        0.1218806630
       86.0000000000        1.0713112219        0.1609539021
       87.0000000000        1.2374085990        0.1614010289
       88.0000000000        1.3685991289        0.0870767848
       89.0000000000        1.3905484549       -0.0471286181
       90.0000000000        1.2830952135       -0.1566270311
       91.0000000000        1.1038120612       -0.1896911883
       92.0000000000        0.9217042400       -0.1690924839
       93.0000000000        0.7709336204       -0.1318233524
       94.0000000000        0.6571758087       -0.0967430159
       95.0000000000        0.5749869587       -0.0688861299
       96.0000000000        0.5171015583       -0.0479032231
       97.0000000000        0.4774309603       -0.0321748810
       98.0000000000        0.4515208204       -0.0201521765
       99.0000000000        0.4362938616       -0.0106386775
      100.0000000000        0.4297002889       -0.0027625223
      101.0000000000        0.4304366611        0.0041120929
      102.0000000000        0.4377520477        0.0104664458
      103.0000000000        0.4513266182        0.0166906123
      104.0000000000        0.4712057689        0.0231322113
      105.0000000000        0.5059929074        0.0302401679
      106.0000000000        0.5401126401        0.0381921526
      107.0000000000        0.5828445498        0.0475504247
      108.0000000000        0.6371492828        0.0589216188
      109.0000000000        0.7028680070        0.0730570929
      110.0000000000        0.7845334188        0.0910122718
      111.0000000000        0.8866024455        0.1141021514
      112.0000000000        1.0149217565        0.1437250589
      113.0000000000        1.1764839678        0.1805582809
      114.0000000000        1.3778582566        0.2226919762
      115.0000000000        1.6217029648        0.2643658949
      116.0000000000        1.9052867989        0.3028265453
      117.0000000000        2.2309867445        0.3525391624
      118.0000000000        2.6214348263        0.4344856817
      119.0000000000        3.1107109913        0.5483862997
      120.0000000000        3.7277249705        0.6882695958
      121.0000000000        4.5035304118        0.8728055258
      122.0000000000        5.4886964547        1.0989721407
      123.0000000000        6.6749735345        1.2397003096
      124.0000000000        7.8521784064        1.0196881878
      125.0000000000        8.5306845399        0.2555889233
      126.0000000000        8.2957685780       -0.7098239649
      127.0000000000        7.2545752007       -1.2770941343
      128.0000000000        5.9182642958       -1.3274984571
      129.0000000000        4.6853813140       -1.1171819213
      130.0000000000        3.6977159175       -0.8606499621
      131.0000000000        2.9506415234       -0.6422502094
      132.0000000000        2.3954552542       -0.4764986967
      133.0000000000        1.9827409262       -0.3553877126
      134.0000000000        1.6736684907       -0.2673870628
      135.0000000000        1.4401907326       -0.2028036485
      136.0000000000        1.2626546864       -0.1545097974
      137.0000000000        1.1274347715       -0.1174740052
      138.0000000000        1.0251468216       -0.0881501041
      139.0000000000        0.9494240292       -0.0639780150
      140.0000000000        0.8961247583       -0.0430152961
      141.0000000000        0.8628576704       -0.0236640086
      142.0000000000        0.8487493733       -0.0044524761
      143.0000000000        0.8544173844        0.0161620270
      144.0000000000        0.8821400365        0.0399920647
      145.0000000000        0.9362251570        0.0693128009
      146.0000000000        1.0235326300        0.1069439632
      147.0000000000        1.1538757812        0.1558103413
      148.0000000000        1.3404117554        0.2167430791
      149.0000000000        1.5900430130        0.2815174108
      150.0000000000        1.8946056522        0.3184591613
      151.0000000000        2.1963399629        0.2637571110
      152.0000000000        2.3754913360        0.0742791234
      153.0000000000        2.3270340526       -0.1657482000
      154.0000000000        2.0785031223       -0.3076247149
      155.0000000000        1.7558531787       -0.3206090346
      156.0000000000        1.4609462144       -0.2676968460
      157.0000000000        1.2261847420       -0.2022849812
      158.0000000000        1.0533550258       -0.1453874644
      159.0000000000        0.9313417112       -0.1005315320
      160.0000000000        0.8490167773       -0.0654779864
      161.0000000000        0.7982215503       -0.0369284697
      162.0000000000        0.7740187931       -0.0118149320
      163.0000000000        0.7743496642        0.0125638494
      164.0000000000        0.7997080048        0.0386121140
      165.0000000000        0.8527577088        0.0681530946
      166.0000000000        0.9371546954        0.1009212730
      167.0000000000        1.0536378791        0.1303524812
      168.0000000000        1.1904776930        0.1372028933
      169.0000000000        1.3111923693        0.0945024125
      170.0000000000        1.3634667412        0.0061498967
      171.0000000000        1.3277494360       -0.0700670271
      172.0000000000        1.2430925304       -0.0896826073
      173.0000000000        1.1638994295       -0.0634770699
      174.0000000000        1.1224483882       -0.0178393589
      175.0000000000        1.1295088966        0.0318982028
      176.0000000000        1.1847535610        0.0769631690
      177.0000000000        1.2773342774        0.1033134990
      178.0000000000        1.3774935720        0.0884626442
      179.0000000000        1.4380937360        0.0271660594
      180.0000000000        1.4305492068       -0.0377321071
      181.0000000000        1.3779972438       -0.0586062402
      182.0000000000        1.3282883809       -0.0353001486
      183.0000000000        1.3146399758        0.0101658661
      184.0000000000        1.3514423032        0.0644941481
      185.0000000000        1.4458839872        0.1257821427
      186.0000000000        1.6067182792        0.1982954524
      187.0000000000        1.8485788083        0.2891459830
      188.0000000000        2.1939403695        0.4058698486
      189.0000000000        2.6701182859        0.5505567999
      190.0000000000        3.2982164719        0.7028364410
      191.0000000000        4.0534212965        0.7848739027
      192.0000000000        4.7930226464        0.6428909509
      193.0000000000        5.2280809054        0.1800256764
      194.0000000000        5.1144652058       -0.3920510865
      195.0000000000        4.5291278143       -0.7217856851
      196.0000000000        3.7750599261       -0.7465228174
      197.0000000000        3.0861761418       -0.6189276493
      198.0000000000        2.5454405336       -0.4638338553
      199.0000000000        2.1511549330       -0.3295302176
      200.0000000000        1.8765504115       -0.2236643385
      201.0000000000        1.6959540759       -0.1406815825
      202.0000000000        1.5902111397       -0.0726540988
      203.0000000000        1.5481304825       -0.0121995932
      204.0000000000        1.5655027698        0.0473177495
      205.0000000000        1.6445576520        0.1122063085
      206.0000000000        1.7937269278        0.1884783902
      207.0000000000        2.0267042169        0.2800633063
      208.0000000000        2.3615794003        0.3819822283
      209.0000000000        2.7883415399        0.4632924486
      210.0000000000        3.2565309277        0.4489073451
      211.0000000000        3.6262122231        0.2598954736
      212.0000000000        3.7367923696       -0.0409849329
      213.0000000000        3.5782405250       -0.2450125661
      214.0000000000        3.3142050898       -0.2531391311
      215.0000000000        3.1153241078       -0.1312702021
      216.0000000000        3.0647444463        0.0308436108
      217.0000000000        3.1676651789        0.1643825856
      218.0000000000        3.3578758167        0.1907448697
      219.0000000000        3.4892663104        0.0423384344
      220.0000000000        3.4039095382       -0.2163740706
      221.0000000000        3.0833935435       -0.3994074708
      222.0000000000        2.6587661329       -0.4268519722
      223.0000000000        2.2611307063       -0.3597096823
      224.0000000000        1.9467220189       -0.2689124128
      225.0000000000        1.7203351789       -0.1862114466
      226.0000000000        1.5693614216       -0.1180565308
      227.0000000000        1.4821556878       -0.0616441944
      228.0000000000        1.4456503980       -0.0120752590
      229.0000000000        1.4574250822        0.0357483831
      230.0000000000        1.5182146338        0.0867723997
      231.0000000000        1.6336411814        0.1457825079
      232.0000000000        1.8136980482        0.2163993529
      233.0000000000        2.0699406905        0.2970434967
      234.0000000000        2.4059690196        0.3713194234
      235.0000000000        2.7971326410        0.3990072186
      236.0000000000        3.1748003960        0.3424288375
      237.0000000000        3.4677776309        0.2356095148
      238.0000000000        3.6566845921        0.1461393793
      239.0000000000        3.7543407313        0.0388485580
      240.0000000000        3.7043382793       -0.1511298143
      241.0000000000        3.4502706805       -0.3446438018
      242.0000000000        3.0570450278       -0.4179461416
      243.0000000000        2.6568492246       -0.3745407108
      244.0000000000        2.3260062716       -0.2843785118
      245.0000000000        2.0879887649       -0.1934279529
      246.0000000000        1.9343994545       -0.1162912688
      247.0000000000        1.8506980262       -0.0531834370
      248.0000000000        1.8245085761       -0.0006763423
      249.0000000000        1.8460907739        0.0442118546
      250.0000000000        1.9104389975        0.0838939954
      251.0000000000        2.0136957821        0.1231598488
      252.0000000000        2.1592105812        0.1697049582
      253.0000000000        2.3576432751        0.2297789955
      254.0000000000        2.6246931280        0.3076945374
      255.0000000000        2.9809328966        0.4094454470
      256.0000000000        3.4547625249        0.5448864948
      257.0000000000        4.0866919411        0.7284362745
      258.0000000000        4.9338318512        0.9785934118
      259.0000000000        6.0720779626        1.3127675261
      260.0000000000        7.5867162493        1.7265715453
      261.0000000000        9.5257005013        2.1355807080
      262.0000000000       11.7703065361        2.2739943662
      263.0000000000       13.8361458831        1.7094632613
      264.0000000000       14.9124158108        0.3516499746
      265.0000000000       14.5309531425       -1.0317206145
      266.0000000000       13.1061813467       -1.6821931760
      267.0000000000       11.3712406889       -1.7265508911
      268.0000000000        9.7132787300       -1.5769767132
      269.0000000000        8.2376136793       -1.3624990463
      270.0000000000        7.0121572537       -1.0791902704
      271.0000000000        6.0877387680       -0.7701580149
      272.0000000000        5.4647077252       -0.4811540684
      273.0000000000        5.1148776562       -0.2230617257
      274.0000000000        5.0122463146        0.0162337724
      275.0000000000        5.1476218316        0.2562990648
      276.0000000000        5.5310800306        0.5146720992
      277.0000000000        6.1847094218        0.7957899871
      278.0000000000        7.1220340286        1.0743291532
      279.0000000000        8.3146813640        1.2981649379
      280.0000000000        9.6949382190        1.4547158464
      281.0000000000       11.2136474385        1.5737731226
      282.0000000000       12.7824290058        1.5048370737
      283.0000000000       14.0495607892        0.9275113051
      284.0000000000       14.4640227753       -0.1514454931
      285.0000000000       13.7338285871       -1.2704815945
      286.0000000000       12.0640748950       -1.9619882470
      287.0000000000       10.0037996766       -2.0703548763
      288.0000000000        8.0513182370       -1.7964561623
      289.0000000000        6.4452452532       -1.4141685817
      290.0000000000        5.2092818259       -1.0693422527
      291.0000000000        4.2809629180       -0.7999926589
      292.0000000000        3.5861159531       -0.5999317879
      293.0000000000        3.0705511070       -0.4526919068
      294.0000000000        2.6751623034       -0.3433049250
      295.0000000000        2.3752505298       -0.2600970188
      296.0000000000        2.1490727178       -0.1946507696
      297.0000000000        1.9820945092       -0.1408151806
      298.0000000000        1.8716103510       -0.0937959368
      299.0000000000        1.7998972150       -0.0498156158
      300.0000000000        1.7722189614       -0.0051109087
      301.0000000000        1.7911792000        0.0441124876
      302.0000000000        1.8632571648        0.1017513518
      303.0000000000        1.9984787220        0.1706235192
      304.0000000000        2.2075123996        0.2479980228
      305.0000000000        2.4912506878        0.3146089711
      306.0000000000        2.8171744366        0.3219699352
      307.0000000000        3.0967795519        0.2174486744
      308.0000000000        3.2304797119        0.0408051600
      309.0000000000        3.2064357281       -0.0668845909
      310.0000000000        3.1452152384       -0.0335897125
      311.0000000000        3.1715518128        0.0960272582
      312.0000000000        3.3439378046        0.2453556242
      313.0000000000        3.6379800521        0.3243596775
      314.0000000000        3.9302043156        0.2221765092
      315.0000000000        4.0106557097       -0.0859974097
      316.0000000000        3.7516145560       -0.4132986034
      317.0000000000        3.2476181857       -0.5590240005
      318.0000000000        2.6922953684       -0.5314022432
      319.0000000000        2.2076602682       -0.4334359428
