# IR Spectrum
# X-Axis:  Frequency (cm-1)
# Y-Axis:  Epsilon
#                  X                   Y               DY/DX
        0.0000000000        0.0241344802        0.0006887488
        1.0000000000        0.0248413643        0.0007254982
        2.0000000000        0.0255864862        0.0007652780
        3.0000000000        0.0263730445        0.0008084319
        4.0000000000        0.0272046051        0.0008553530
        5.0000000000        0.0280851561        0.0009064931
        6.0000000000        0.0290191705        0.0009623733
        7.0000000000        0.0300116827        0.0010235969
        8.0000000000        0.0310683779        0.0010908652
        9.0000000000        0.0326483307        0.0011706556
       10.0000000000        0.0338593219        0.0012527201
       11.0000000000        0.0351567553        0.0013437449
       12.0000000000        0.0365502433        0.0014450729
       13.0000000000        0.0380508653        0.0015583040
       14.0000000000        0.0396714539        0.0016853560
       15.0000000000        0.0414269498        0.0018285420
       16.0000000000        0.0433348453        0.0019906708
       17.0000000000        0.0454157418        0.0021751770
       18.0000000000        0.0480664139        0.0023909552
       19.0000000000        0.0505759978        0.0026340271
       20.0000000000        0.0533472686        0.0029155580
       21.0000000000        0.0564226866        0.0032438835
       22.0000000000        0.0598541504        0.0036296555
       23.0000000000        0.0637056867        0.0040866336
       24.0000000000        0.0680570831        0.0046327991
       25.0000000000        0.0730088555        0.0052919423
       26.0000000000        0.0786891323        0.0060959547
       27.0000000000        0.0852633226        0.0070881771
       28.0000000000        0.0929478752        0.0083283427
       29.0000000000        0.1020301007        0.0098999207
       30.0000000000        0.1128970010        0.0119210105
       31.0000000000        0.1260773646        0.0145602221
       32.0000000000        0.1423027332        0.0180585957
       33.0000000000        0.1625927145        0.0227554174
       34.0000000000        0.1914799654        0.0291419622
       35.0000000000        0.2246773746        0.0376515882
       36.0000000000        0.2676049119        0.0485914227
       37.0000000000        0.3223922324        0.0610195531
       38.0000000000        0.3887885241        0.0706902598
       39.0000000000        0.4598538786        0.0686175801
       40.0000000000        0.5197214586        0.0483813441
       41.0000000000        0.5545197485        0.0223813061
       42.0000000000        0.5707091982        0.0142926200
       43.0000000000        0.5915989206        0.0311410199
       44.0000000000        0.6385382536        0.0646560559
       45.0000000000        0.7231212153        0.1047120867
       46.0000000000        0.8456839855        0.1374341330
       47.0000000000        0.9866490340        0.1357717917
       48.0000000000        1.0949717046        0.0689899092
       49.0000000000        1.1094589935       -0.0470227861
       50.0000000000        1.0116589880       -0.1386872796
       51.0000000000        0.8548296664       -0.1646246840
       52.0000000000        0.6972617190       -0.1461073687
       53.0000000000        0.5667953004       -0.1144057054
       54.0000000000        0.4675609729       -0.0849950233
       55.0000000000        0.3946708688       -0.0618591045
       56.0000000000        0.3418761729       -0.0445980707
       57.0000000000        0.3039855803       -0.0318101301
       58.0000000000        0.2786048757       -0.0221586000
       59.0000000000        0.2603384502       -0.0146611326
       60.0000000000        0.2488211036       -0.0085545221
       61.0000000000        0.2429519550       -0.0032841104
       62.0000000000        0.2421206191        0.0015876890
       63.0000000000        0.2461218071        0.0064428384
       64.0000000000        0.2551267621        0.0116610337
       65.0000000000        0.2697069655        0.0176720470
       66.0000000000        0.2909122133        0.0250127711
       67.0000000000        0.3204081897        0.0343877896
       68.0000000000        0.3606675271        0.0467073574
       69.0000000000        0.4151492635        0.0629959779
       70.0000000000        0.4881992360        0.0838387669
       71.0000000000        0.5852744656        0.1075877450
       72.0000000000        0.7032353447        0.1263388572
       73.0000000000        0.8306429663        0.1231598681
       74.0000000000        0.9374280698        0.0848852411
       75.0000000000        0.9946907041        0.0301932618
       76.0000000000        1.0040022584       -0.0075415334
       77.0000000000        0.9856899954       -0.0290563646
       78.0000000000        0.9467246013       -0.0483816811
       79.0000000000        0.8930265317       -0.0554052004
       80.0000000000        0.8443481566       -0.0379021864
       81.0000000000        0.8236557122       -0.0011612763
       82.0000000000        0.8453107167        0.0456306371
       83.0000000000        0.9166028264        0.0974511016
       84.0000000000        1.0398566172        0.1477600454
       85.0000000000        1.2052973746        0.1767928988
       86.0000000000        1.3732912702        0.1455882744
       87.0000000000        1.4673055701        0.0301007652
       88.0000000000        1.4234093462       -0.1142231346
       89.0000000000        1.2606890455       -0.1967022903
       90.0000000000        1.0565419463       -0.2014860410
       91.0000000000        0.8703368291       -0.1678782327
       92.0000000000        0.7226791764       -0.1278744541
       93.0000000000        0.6124884440       -0.0938458995
       94.0000000000        0.5322907754       -0.0678148389
       95.0000000000        0.4746151628       -0.0485051934
       96.0000000000        0.4336345297       -0.0341448770
       97.0000000000        0.4051754210       -0.0232479314
       98.0000000000        0.3944876245       -0.0146134979
       99.0000000000        0.3834575378       -0.0076570476
      100.0000000000        0.3788380689       -0.0017116446
      101.0000000000        0.3798397100        0.0036473637
      102.0000000000        0.3860509992        0.0087596301
      103.0000000000        0.3993932615        0.0139486446
      104.0000000000        0.4160549604        0.0194576705
      105.0000000000        0.4385304641        0.0256345411
      106.0000000000        0.4676760393        0.0328712530
      107.0000000000        0.5047939795        0.0416768502
      108.0000000000        0.5517785333        0.0527368755
      109.0000000000        0.6113237999        0.0669740365
      110.0000000000        0.6871737497        0.0855555514
      111.0000000000        0.7842829795        0.1096544668
      112.0000000000        0.9084103430        0.1394169893
      113.0000000000        1.0638393242        0.1710371871
      114.0000000000        1.2469742098        0.1917445092
      115.0000000000        1.4366066980        0.1807746124
      116.0000000000        1.5960477030        0.1341338183
      117.0000000000        1.7098370535        0.0891191365
      118.0000000000        1.7938677793        0.0880495628
      119.0000000000        1.9046288312        0.1398652862
      120.0000000000        2.0920975429        0.2341098468
      121.0000000000        2.3880599004        0.3636862521
      122.0000000000        2.8320944997        0.5312279621
      123.0000000000        3.4646900452        0.7406900145
      124.0000000000        4.3224190359        0.9748146498
      125.0000000000        5.3955246099        1.1481127059
      126.0000000000        6.5312778947        1.0572844988
      127.0000000000        7.3471073981        0.4914463345
      128.0000000000        7.4056155121       -0.3826164518
      129.0000000000        6.6653259235       -1.0203138695
      130.0000000000        5.5312808992       -1.1757715088
      131.0000000000        4.4136243189       -1.0311804143
      132.0000000000        3.4942326433       -0.8060237789
      133.0000000000        2.7936605519       -0.6021041272
      134.0000000000        2.2746086833       -0.4436112748
      135.0000000000        1.8926185999       -0.3264319276
      136.0000000000        1.6113694380       -0.2404268343
      137.0000000000        1.4044850476       -0.1763385673
      138.0000000000        1.2537703655       -0.1270789434
      139.0000000000        1.1471394871       -0.0874242983
      140.0000000000        1.0770464806       -0.0534189722
      141.0000000000        1.0395013029       -0.0218225436
      142.0000000000        1.0348401620        0.0103652628
      143.0000000000        1.0626819352        0.0462002680
      144.0000000000        1.1295728335        0.0890284909
      145.0000000000        1.2441014438        0.1418631631
      146.0000000000        1.4175790286        0.2046872032
      147.0000000000        1.6542367394        0.2664106618
      148.0000000000        1.9381519720        0.2901786581
      149.0000000000        2.2003320004        0.2122385367
      150.0000000000        2.3197191789        0.0110412917
      151.0000000000        2.2169032780       -0.2057476738
      152.0000000000        1.9473704101       -0.3106831259
      153.0000000000        1.6336912972       -0.3031728335
      154.0000000000        1.3568404799       -0.2471452597
      155.0000000000        1.1407324178       -0.1861231566
      156.0000000000        0.9811079503       -0.1351470205
      157.0000000000        0.8665321041       -0.0957803423
      158.0000000000        0.7864854231       -0.0655918471
      159.0000000000        0.7332692181       -0.0416564697
      160.0000000000        0.7019399411       -0.0214329032
      161.0000000000        0.6898797322       -0.0027879860
      162.0000000000        0.6964713359        0.0161759588
      163.0000000000        0.7234072198        0.0372355733
      164.0000000000        0.7725919598        0.0617819850
      165.0000000000        0.8481129674        0.0895951911
      166.0000000000        0.9511991509        0.1152803576
      167.0000000000        1.0727099627        0.1226763450
      168.0000000000        1.1823077223        0.0881185575
      169.0000000000        1.2346210704        0.0126867543
      170.0000000000        1.2104551070       -0.0548035259
      171.0000000000        1.1419704875       -0.0734726827
      172.0000000000        1.0773881049       -0.0509043491
      173.0000000000        1.0459686512       -0.0105091831
      174.0000000000        1.0572605808        0.0327165813
      175.0000000000        1.1088577004        0.0680782348
      176.0000000000        1.1854749935        0.0794403944
      177.0000000000        1.2537795918        0.0499792891
      178.0000000000        1.2754651351       -0.0078814832
      179.0000000000        1.2444369008       -0.0488884186
      180.0000000000        1.1921029407       -0.0494672196
      181.0000000000        1.1547680124       -0.0222537443
      182.0000000000        1.1510559206        0.0157363417
      183.0000000000        1.1873958742        0.0574296917
      184.0000000000        1.2671858949        0.1030399816
      185.0000000000        1.3959905257        0.1562539005
      186.0000000000        1.5840792579        0.2226751936
      187.0000000000        1.8480902967        0.3093684008
      188.0000000000        2.2120724426        0.4237110177
      189.0000000000        2.7057876583        0.5682670017
      190.0000000000        3.3531451476        0.7246220905
      191.0000000000        4.1353336977        0.8186928164
      192.0000000000        4.9185434093        0.6969662659
      193.0000000000        5.4155553338        0.2461661305
      194.0000000000        5.3620727140       -0.3427271620
      195.0000000000        4.8108607370       -0.7020288053
      196.0000000000        4.0676831703       -0.7409919204
      197.0000000000        3.3850864546       -0.6095771890
      198.0000000000        2.8652882008       -0.4408436993
      199.0000000000        2.5029096457       -0.2880195770
      200.0000000000        2.2811150251       -0.1591514147
      201.0000000000        2.1788993396       -0.0467493664
      202.0000000000        2.1856325695        0.0602544964
      203.0000000000        2.3012044566        0.1725451670
      204.0000000000        2.5349423826        0.2971253366
      205.0000000000        2.8980192655        0.4283147908
      206.0000000000        3.3812816532        0.5265212546
      207.0000000000        3.9086252786        0.4966354402
      208.0000000000        4.2983571303        0.2450163615
      209.0000000000        4.3513013529       -0.1390241569
      210.0000000000        4.0636127909       -0.3982449167
      211.0000000000        3.6349334460       -0.4245364142
      212.0000000000        3.2634894676       -0.3035676673
      213.0000000000        3.0433440876       -0.1340278987
      214.0000000000        2.9945106775        0.0331996866
      215.0000000000        3.0969845999        0.1611507924
      216.0000000000        3.2837452554        0.1893667338
      217.0000000000        3.4229439951        0.0584695515
      218.0000000000        3.3665379393       -0.1746753521
      219.0000000000        3.0978505379       -0.3394237454
      220.0000000000        2.7378277528       -0.3588269160
      221.0000000000        2.4106562757       -0.2866608504
      222.0000000000        2.1731047488       -0.1872705559
      223.0000000000        2.0356304793       -0.0885517046
      224.0000000000        1.9944366128        0.0057276047
      225.0000000000        2.0472067492        0.1003417978
      226.0000000000        2.1966144501        0.1990932217
      227.0000000000        2.4475478149        0.2943809896
      228.0000000000        2.7756259475        0.3500131899
      229.0000000000        3.1105778126        0.2953272041
      230.0000000000        3.3153532551        0.0939193730
      231.0000000000        3.2855998261       -0.1435767876
      232.0000000000        3.0716476251       -0.2571412658
      233.0000000000        2.8236443802       -0.2306145912
      234.0000000000        2.6334463085       -0.1479220136
      235.0000000000        2.5192715499       -0.0885820415
      236.0000000000        2.4337482434       -0.0934081602
      237.0000000000        2.3185532870       -0.1382219697
      238.0000000000        2.1654325915       -0.1599067481
      239.0000000000        2.0141771687       -0.1361985261
      240.0000000000        1.9013519278       -0.0873402107
      241.0000000000        1.8410200150       -0.0334313650
      242.0000000000        1.8336230265        0.0181137719
      243.0000000000        1.8764232788        0.0672462087
      244.0000000000        1.9680082970        0.1160282570
      245.0000000000        2.1088322609        0.1657948162
      246.0000000000        2.2998068395        0.2162249098
      247.0000000000        2.5419640282        0.2690848033
      248.0000000000        2.8417987616        0.3360209520
      249.0000000000        3.2241334698        0.4354265135
      250.0000000000        3.7281507090        0.5812443745
      251.0000000000        4.4059235231        0.7851448725
      252.0000000000        5.3229290679        1.0624984543
      253.0000000000        6.5598834145        1.4258179247
      254.0000000000        8.1974588729        1.8544534438
      255.0000000000       10.2502708750        2.2200774121
      256.0000000000       12.5075827598        2.1901726420
      257.0000000000       14.3569645770        1.3595227401
      258.0000000000       15.0060038469       -0.0980647751
      259.0000000000       14.2717329257       -1.2415449683
      260.0000000000       12.8193087145       -1.5309758528
      261.0000000000       11.3840399886       -1.3015006402
      262.0000000000       10.2121218276       -1.0726822150
      263.0000000000        9.1653646442       -1.0493719150
      264.0000000000        8.0985253685       -1.0706332946
      265.0000000000        7.0733705267       -0.9528285570
      266.0000000000        6.2338953082       -0.7136727761
      267.0000000000        5.6573370708       -0.4386157392
      268.0000000000        5.3542557224       -0.1693595187
      269.0000000000        5.3166154116        0.0944554145
      270.0000000000        5.5476257200        0.3717758297
      271.0000000000        6.0724006752        0.6855179398
      272.0000000000        6.9353884660        1.0481742251
      273.0000000000        8.1762464311        1.4299120326
      274.0000000000        9.7595702909        1.6998188434
      275.0000000000       11.4562218908        1.6137054466
      276.0000000000       12.8205349442        1.0462335534
      277.0000000000       13.4727380579        0.2512115977
      278.0000000000       13.3340074070       -0.5232787971
      279.0000000000       12.4431465927       -1.2649236073
      280.0000000000       10.8906343737       -1.7753021846
      281.0000000000        9.0441633512       -1.8455060803
      282.0000000000        7.3068164964       -1.5968853179
      283.0000000000        5.8791657143       -1.2574791843
      284.0000000000        4.7793585990       -0.9524282971
      285.0000000000        3.9559372221       -0.7139780880
      286.0000000000        3.3352163845       -0.5364376152
      287.0000000000        2.8676252190       -0.4052721432
      288.0000000000        2.5091893548       -0.3070811227
      289.0000000000        2.2413318594       -0.2317345964
      290.0000000000        2.0406485053       -0.1716667268
      291.0000000000        1.8947799516       -0.1212927146
      292.0000000000        1.7963087009       -0.0761999130
      293.0000000000        1.7419057977       -0.0325315641
      294.0000000000        1.7320328196        0.0135089298
      295.0000000000        1.7710656184        0.0659838625
      296.0000000000        1.8675454556        0.1290540984
      297.0000000000        2.0336162202        0.2052301985
      298.0000000000        2.2867711104        0.2894353242
      299.0000000000        2.6126117528        0.3552452691
      300.0000000000        2.9717827741        0.3444956974
      301.0000000000        3.2586702094        0.2094264145
      302.0000000000        3.3700219102        0.0158277742
      303.0000000000        3.3167922833       -0.1040372910
      304.0000000000        3.1897036922       -0.1447153991
      305.0000000000        3.0204419609       -0.2029105027
      306.0000000000        2.7691525060       -0.3009460297
      307.0000000000        2.4318819599       -0.3610904616
      308.0000000000        2.0734350247       -0.3446719585
      309.0000000000        1.7570284010       -0.2846134716
      310.0000000000        1.5060360492       -0.2182342375
      311.0000000000        1.3160560171       -0.1613523927
      312.0000000000        1.1781559567       -0.1162698204
      313.0000000000        1.0803849290       -0.0805635177
      314.0000000000        1.0149910072       -0.0509816275
      315.0000000000        0.9773924098       -0.0244999509
      316.0000000000        0.9658461905        0.0015328474
      317.0000000000        0.9810371163        0.0292635678
      318.0000000000        1.0252297504        0.0594335354
      319.0000000000        1.0996327025        0.0884525963
