# IR Spectrum
# X-Axis:  Frequency (cm-1)
# Y-Axis:  Epsilon
#                  X                   Y               DY/DX
        0.0000000000        0.0449365513        0.0022069283
        1.0000000000        0.0472417391        0.0024076409
        2.0000000000        0.0497609497        0.0026357340
        3.0000000000        0.0525240108        0.0028962781
        4.0000000000        0.0555663964        0.0031955453
        5.0000000000        0.0589305945        0.0035413587
        6.0000000000        0.0626678820        0.0039435645
        7.0000000000        0.0668406526        0.0044146745
        8.0000000000        0.0715255012        0.0049707525
        9.0000000000        0.0768173594        0.0056326510
       10.0000000000        0.0828351073        0.0064277589
       11.0000000000        0.0897292840        0.0073925028
       12.0000000000        0.0976928250        0.0085759724
       13.0000000000        0.1069762123        0.0100452394
       14.0000000000        0.1179091386        0.0118932428
       15.0000000000        0.1309318675        0.0142505628
       16.0000000000        0.1466410852        0.0173030065
       17.0000000000        0.1658572793        0.0213175262
       18.0000000000        0.1897232339        0.0266787891
       19.0000000000        0.2198978979        0.0339354673
       20.0000000000        0.2585258775        0.0438333431
       21.0000000000        0.3087447061        0.0572668829
       22.0000000000        0.3744688127        0.0748816278
       23.0000000000        0.4596205025        0.0956733466
       24.0000000000        0.5676878615        0.1135542770
       25.0000000000        0.6833470137        0.1129179244
       26.0000000000        0.7810177988        0.0757602338
       27.0000000000        0.8255113263        0.0121040156
       28.0000000000        0.8115193247       -0.0335935464
       29.0000000000        0.7731006694       -0.0364679032
       30.0000000000        0.7485715404       -0.0094907571
       31.0000000000        0.7571476851        0.0268735201
       32.0000000000        0.8010422455        0.0596617613
       33.0000000000        0.8733722694        0.0832367062
       34.0000000000        0.9629485419        0.0926200662
       35.0000000000        1.0488382912        0.0727704953
       36.0000000000        1.0964526968        0.0185969902
       37.0000000000        1.0870750823       -0.0322744303
       38.0000000000        1.0474384536       -0.0384304169
       39.0000000000        1.0246693405       -0.0018716309
       40.0000000000        1.0545434640        0.0533520450
       41.0000000000        1.1337326148        0.1014371985
       42.0000000000        1.2440498272        0.1091952369
       43.0000000000        1.3273960558        0.0446927601
       44.0000000000        1.3155815444       -0.0707180581
       45.0000000000        1.1959965139       -0.1578815641
       46.0000000000        1.0232084249       -0.1774309935
       47.0000000000        0.8552187713       -0.1547033507
       48.0000000000        0.7169412895       -0.1217776093
       49.0000000000        0.6106701093       -0.0914648721
       50.0000000000        0.5326590299       -0.0651888437
       51.0000000000        0.4790848027       -0.0425457658
       52.0000000000        0.4464077067       -0.0233989730
       53.0000000000        0.4333272375       -0.0082288957
       54.0000000000        0.4302802227        0.0008982395
       55.0000000000        0.4324024102        0.0020689381
       56.0000000000        0.4328664041       -0.0012002586
       57.0000000000        0.4312613721       -0.0009518860
       58.0000000000        0.4328939292        0.0047972476
       59.0000000000        0.4408030571        0.0103977664
       60.0000000000        0.4517594544        0.0105261108
       61.0000000000        0.4609079670        0.0080620452
       62.0000000000        0.4699614915        0.0115871044
       63.0000000000        0.4906259402        0.0245916891
       64.0000000000        0.5248356657        0.0447685092
       65.0000000000        0.5815344843        0.0690157700
       66.0000000000        0.6626318023        0.0923111226
       67.0000000000        0.7619335582        0.1026119701
       68.0000000000        0.8579712435        0.0813652275
       69.0000000000        0.9136553699        0.0263826969
       70.0000000000        0.9115063646       -0.0263306130
       71.0000000000        0.8740344924       -0.0415569142
       72.0000000000        0.8401497498       -0.0219251294
       73.0000000000        0.8359114288        0.0152539404
       74.0000000000        0.8732700904        0.0605713561
       75.0000000000        0.9595010510        0.1133581316
       76.0000000000        1.1035961547        0.1769695632
       77.0000000000        1.3180914342        0.2543057539
       78.0000000000        1.6180717718        0.3403067691
       79.0000000000        1.9950578248        0.4056571187
       80.0000000000        2.4031880645        0.3788904323
       81.0000000000        2.6988683830        0.1823571020
       82.0000000000        2.7270457237       -0.1302517059
       83.0000000000        2.4661929676       -0.3640764376
       84.0000000000        2.0588020792       -0.4243514676
       85.0000000000        1.6544755808       -0.3736203632
       86.0000000000        1.3213675593       -0.2917964540
       87.0000000000        1.0683402050       -0.2166681838
       88.0000000000        0.8826546178       -0.1573599732
       89.0000000000        0.7488312601       -0.1123627186
       90.0000000000        0.6544320626       -0.0778812994
       91.0000000000        0.5906546308       -0.0507017820
       92.0000000000        0.5510881752       -0.0294481613
       93.0000000000        0.5292562167       -0.0158237511
       94.0000000000        0.5153616078       -0.0143321358
       95.0000000000        0.4969985692       -0.0255748622
       96.0000000000        0.4643150175       -0.0389021321
       97.0000000000        0.4224592088       -0.0429363880
       98.0000000000        0.3815409245       -0.0378333391
       99.0000000000        0.3479947498       -0.0290248596
      100.0000000000        0.3272903496       -0.0199237238
      101.0000000000        0.3115931471       -0.0115934767
      102.0000000000        0.3039298964       -0.0037721370
      103.0000000000        0.3040854381        0.0041622684
      104.0000000000        0.3125374383        0.0129440176
      105.0000000000        0.3304782320        0.0232235914
      106.0000000000        0.3609233097        0.0350662490
      107.0000000000        0.4018931402        0.0464228408
      108.0000000000        0.4514484855        0.0506054185
      109.0000000000        0.4968617174        0.0362797663
      110.0000000000        0.5164533404        0.0002709851
      111.0000000000        0.4967438747       -0.0376082395
      112.0000000000        0.4483108679       -0.0552601672
      113.0000000000        0.3928643526       -0.0533173943
      114.0000000000        0.3443453334       -0.0431711668
      115.0000000000        0.3066884614       -0.0323521633
      116.0000000000        0.2789893955       -0.0234177309
      117.0000000000        0.2609706543       -0.0165986656
      118.0000000000        0.2493985673       -0.0115015004
      119.0000000000        0.2398893701       -0.0076916737
      120.0000000000        0.2337231021       -0.0047617492
      121.0000000000        0.2301650142       -0.0024370920
      122.0000000000        0.2287123233       -0.0005240897
      123.0000000000        0.2290256161        0.0011140064
      124.0000000000        0.2312735807        0.0025806894
      125.0000000000        0.2345397946        0.0039397969
      126.0000000000        0.2391382610        0.0052538528
      127.0000000000        0.2450485888        0.0065710144
      128.0000000000        0.2522957542        0.0079345280
      129.0000000000        0.2609470598        0.0093863488
      130.0000000000        0.2711124338        0.0109702783
      131.0000000000        0.2844663259        0.0127540449
      132.0000000000        0.2981993469        0.0147569612
      133.0000000000        0.3140824295        0.0170669991
      134.0000000000        0.3324644014        0.0197710150
      135.0000000000        0.3537925593        0.0229804611
      136.0000000000        0.3786418894        0.0268411928
      137.0000000000        0.4077560301        0.0315474293
      138.0000000000        0.4421051094        0.0373619700
      139.0000000000        0.4829682057        0.0446458763
      140.0000000000        0.5320521585        0.0539024739
      141.0000000000        0.5916644118        0.0658428249
      142.0000000000        0.6649660293        0.0814824071
      143.0000000000        0.7563414824        0.1022794881
      144.0000000000        0.8719291417        0.1303163100
      145.0000000000        1.0203392609        0.1684770289
      146.0000000000        1.2134723433        0.2204081479
      147.0000000000        1.4680351530        0.2895610029
      148.0000000000        1.7994737237        0.3753793848
      149.0000000000        2.2201301960        0.4640493674
      150.0000000000        2.7160733370        0.5177473994
      151.0000000000        3.2291403003        0.4944660537
      152.0000000000        3.6860122854        0.4155299471
      153.0000000000        4.0627509570        0.3382663319
      154.0000000000        4.3446871349        0.2047160338
      155.0000000000        4.4160686528       -0.0883637535
      156.0000000000        4.1475819418       -0.4372710026
      157.0000000000        3.6019673518       -0.6219503879
      158.0000000000        2.9745491224       -0.6073849674
      159.0000000000        2.4181751656       -0.4984113972
      160.0000000000        1.9808026093       -0.3783146421
      161.0000000000        1.6546057847       -0.2781960849
      162.0000000000        1.4163218188       -0.2021117831
      163.0000000000        1.2437993770       -0.1457603727
      164.0000000000        1.1200143743       -0.1038062878
      165.0000000000        1.0328646838       -0.0718578527
      166.0000000000        0.9740570845       -0.0466639545
      167.0000000000        0.9380778709       -0.0258666946
      168.0000000000        0.9214464652       -0.0077131289
      169.0000000000        0.9222345249        0.0091833677
      170.0000000000        0.9397973695        0.0260317830
      171.0000000000        0.9746774251        0.0440225731
      172.0000000000        1.0286609588        0.0644782535
      173.0000000000        1.1049871589        0.0890083492
      174.0000000000        1.2087112376        0.1196568191
      175.0000000000        1.3471840795        0.1589674533
      176.0000000000        1.5304912060        0.2098091924
      177.0000000000        1.7715901258        0.2750233079
      178.0000000000        2.0864608004        0.3581228556
      179.0000000000        2.4969683455        0.4651402097
      180.0000000000        3.0262504681        0.5960798798
      181.0000000000        3.6854263071        0.7132447422
      182.0000000000        4.4251593786        0.7056700816
      183.0000000000        5.0184653933        0.4296511459
      184.0000000000        5.2043828337       -0.0743834328
      185.0000000000        4.8993321007       -0.4945060479
      186.0000000000        4.3161956077       -0.6238095868
      187.0000000000        3.7228890042       -0.5396111135
      188.0000000000        3.2602367705       -0.3816588211
      189.0000000000        2.9595390575       -0.2219946258
      190.0000000000        2.8107339897       -0.0782039790
      191.0000000000        2.7999801125        0.0545452900
      192.0000000000        2.9204777674        0.1875298343
      193.0000000000        3.1793007249        0.3335534671
      194.0000000000        3.5965647458        0.5067603164
      195.0000000000        4.2064043195        0.7201545016
      196.0000000000        5.0485441134        0.9664543184
      197.0000000000        6.1268792593        1.1723158539
      198.0000000000        7.3159151202        1.1444791318
      199.0000000000        8.2554138600        0.6469507308
      200.0000000000        8.4786827607       -0.2237351122
      201.0000000000        7.8679485357       -0.9245717931
      202.0000000000        6.8019641863       -1.1273937296
      203.0000000000        5.7303706542       -0.9798216446
      204.0000000000        4.8784468877       -0.7170387376
      205.0000000000        4.2939587563       -0.4563193723
      206.0000000000        3.9555708634       -0.2252671067
      207.0000000000        3.8359946501       -0.0163425909
      208.0000000000        3.9201582592        0.1841016541
      209.0000000000        4.2022850913        0.3777008352
      210.0000000000        4.6623407321        0.5293099227
      211.0000000000        5.2160853793        0.5413548022
      212.0000000000        5.6621529110        0.3077628240
      213.0000000000        5.7787374379       -0.0873524474
      214.0000000000        5.5352518724       -0.3580317916
      215.0000000000        5.1540202493       -0.3634485910
      216.0000000000        4.8689571472       -0.1867267799
      217.0000000000        4.8048918904        0.0654137413
      218.0000000000        5.0073249173        0.3407556764
      219.0000000000        5.4824848844        0.6026529772
      220.0000000000        6.1806909638        0.7654123001
      221.0000000000        6.9253374400        0.6657757214
      222.0000000000        7.3903047558        0.2145133566
      223.0000000000        7.3191220075       -0.3364207093
      224.0000000000        6.8152132869       -0.6091639743
      225.0000000000        6.2096933957       -0.5635472234
      226.0000000000        5.7261249495       -0.4018320239
      227.0000000000        5.3874401729       -0.2904744867
      228.0000000000        5.1274105099       -0.2472360533
      229.0000000000        4.9077968897       -0.1795810821
      230.0000000000        4.7959974896       -0.0304111418
      231.0000000000        4.8695786257        0.1866558615
      232.0000000000        5.1848709496        0.4510296257
      233.0000000000        5.7851176248        0.7554580279
      234.0000000000        6.7027036145        1.0785028084
      235.0000000000        7.9213382665        1.3357976050
      236.0000000000        9.2968217188        1.3616349204
      237.0000000000       10.5241536180        1.0343052934
      238.0000000000       11.2674924103        0.4131327854
      239.0000000000       11.2869020952       -0.3950909661
      240.0000000000       10.4869718439       -1.1658054091
      241.0000000000        9.0924227725       -1.5394449183
      242.0000000000        7.5573249183       -1.4706399503
      243.0000000000        6.2189398461       -1.1905196415
      244.0000000000        5.1829678533       -0.8860734459
      245.0000000000        4.4308487598       -0.6274935272
      246.0000000000        3.9100167251       -0.4222441644
      247.0000000000        3.5727723563       -0.2576973379
      248.0000000000        3.3899125039       -0.1180131283
      249.0000000000        3.3367867298        0.0110825619
      250.0000000000        3.4125500477        0.1414540251
      251.0000000000        3.6225716537        0.2800900040
      252.0000000000        3.9741803093        0.4223248556
      253.0000000000        4.4602535592        0.5432211083
      254.0000000000        5.0430567414        0.6135232693
      255.0000000000        5.6783927053        0.6593310942
      256.0000000000        6.3760080234        0.7432954979
      257.0000000000        7.1595608883        0.7990086040
      258.0000000000        7.8899842230        0.6007851865
      259.0000000000        8.2385855785        0.0527583874
      260.0000000000        7.9860926515       -0.5208958706
      261.0000000000        7.3213756242       -0.7382489688
      262.0000000000        6.6246798187       -0.6171104478
      263.0000000000        6.1209243018       -0.3927207354
      264.0000000000        5.8049151291       -0.2674181012
      265.0000000000        5.5250268540       -0.3179348714
      266.0000000000        5.1467315567       -0.4331078627
      267.0000000000        4.6941673882       -0.4485116697
      268.0000000000        4.2920500903       -0.3397041877
      269.0000000000        4.0381880485       -0.1674498718
      270.0000000000        3.9667598899        0.0269156565
      271.0000000000        4.0966228645        0.2361711321
      272.0000000000        4.4460478670        0.4665813411
      273.0000000000        5.0357025939        0.7132133423
      274.0000000000        5.8612376560        0.9228218832
      275.0000000000        6.8218045057        0.9513378665
      276.0000000000        7.6397702794        0.6146755930
      277.0000000000        7.9338528929       -0.0593756957
      278.0000000000        7.5329728706       -0.6990167700
      279.0000000000        6.6645177345       -0.9678146300
      280.0000000000        5.7133177224       -0.8943257496
      281.0000000000        4.9201402506       -0.6852152808
      282.0000000000        4.3362500760       -0.4926268945
      283.0000000000        3.9109954721       -0.3686515675
      284.0000000000        3.5864782457       -0.2813436647
      285.0000000000        3.3542677454       -0.1779701034
      286.0000000000        3.2402175409       -0.0465297769
      287.0000000000        3.2643802097        0.0939906974
      288.0000000000        3.4192876899        0.2065921661
      289.0000000000        3.6457017340        0.2229453443
      290.0000000000        3.8082123889        0.0728662669
      291.0000000000        3.7514432055       -0.1911885484
      292.0000000000        3.4502510568       -0.3863905275
      293.0000000000        3.0332292082       -0.4236192087
      294.0000000000        2.6366962060       -0.3597482027
      295.0000000000        2.3226140397       -0.2676827458
      296.0000000000        2.0991525598       -0.1812859165
      297.0000000000        1.9556479509       -0.1077763094
      298.0000000000        1.8802478905       -0.0442541368
      299.0000000000        1.8656530991        0.0148137329
      300.0000000000        1.9103440549        0.0752734035
      301.0000000000        2.0184541345        0.1424290991
      302.0000000000        2.2021347187        0.2191600343
      303.0000000000        2.4618957808        0.2996255006
      304.0000000000        2.7939674673        0.3566707426
      305.0000000000        3.1488306904        0.3347764546
      306.0000000000        3.4239517355        0.1987020508
      307.0000000000        3.5328934698        0.0250315573
      308.0000000000        3.5059662077       -0.0573642828
      309.0000000000        3.4584434657       -0.0219765468
      310.0000000000        3.4891916993        0.0723365189
      311.0000000000        3.6134479220        0.1767125700
      312.0000000000        3.8465715265        0.2963791832
      313.0000000000        4.2173460650        0.4499136781
      314.0000000000        4.7442957119        0.5938928556
      315.0000000000        5.3581657854        0.5954196073
      316.0000000000        5.8329447049        0.3043212647
      317.0000000000        5.8859221401       -0.2111057056
      318.0000000000        5.4499005865       -0.6159537218
      319.0000000000        4.7575195428       -0.7217070527
