# IR Spectrum
# X-Axis:  Frequency (cm-1)
# Y-Axis:  Epsilon
#                  X                   Y               DY/DX
        0.0000000000        0.0431737943        0.0021260059
        1.0000000000        0.0453941075        0.0023186406
        2.0000000000        0.0478198174        0.0025375312
        3.0000000000        0.0504795389        0.0027875674
        4.0000000000        0.0534073381        0.0030748113
        5.0000000000        0.0566440697        0.0034068454
        6.0000000000        0.0602391214        0.0037932437
        7.0000000000        0.0642527101        0.0042462173
        8.0000000000        0.0687589436        0.0047815115
        9.0000000000        0.0738499473        0.0054196649
       10.0000000000        0.0796415009        0.0061878021
       11.0000000000        0.0862808364        0.0071222187
       12.0000000000        0.0939575757        0.0082721543
       13.0000000000        0.1029192771        0.0097053641
       14.0000000000        0.1134938237        0.0115164171
       15.0000000000        0.1261220245        0.0138390975
       16.0000000000        0.1414054388        0.0168648041
       17.0000000000        0.1601764925        0.0208690457
       18.0000000000        0.1835995126        0.0262464933
       19.0000000000        0.2133084334        0.0335463801
       20.0000000000        0.2516824407        0.0434696841
       21.0000000000        0.3014659509        0.0566798641
       22.0000000000        0.3661254307        0.0730509283
       23.0000000000        0.4476735137        0.0895083086
       24.0000000000        0.5420014710        0.0962477054
       25.0000000000        0.6314454513        0.0771695111
       26.0000000000        0.6861192783        0.0288449193
       27.0000000000        0.6892259481       -0.0191207306
       28.0000000000        0.6622405593       -0.0352028897
       29.0000000000        0.6324751967       -0.0204941018
       30.0000000000        0.6263029550        0.0096433040
       31.0000000000        0.6535191010        0.0452524115
       32.0000000000        0.7172132122        0.0821069823
       33.0000000000        0.8172243017        0.1174409114
       34.0000000000        0.9506116783        0.1481466313
       35.0000000000        1.1088075782        0.1639592761
       36.0000000000        1.2642099474        0.1368838068
       37.0000000000        1.3613377828        0.0487894950
       38.0000000000        1.3568484137       -0.0529906994
       39.0000000000        1.2757212876       -0.0965083764
       40.0000000000        1.1917892978       -0.0728235204
       41.0000000000        1.1455548412       -0.0176216908
       42.0000000000        1.1548217169        0.0324412844
       43.0000000000        1.1971567682        0.0428481357
       44.0000000000        1.2192131329       -0.0086758925
       45.0000000000        1.1684515941       -0.0926360682
       46.0000000000        1.0452671916       -0.1446325870
       47.0000000000        0.8972907727       -0.1439399359
       48.0000000000        0.7671240708       -0.1138264066
       49.0000000000        0.6715739665       -0.0774399918
       50.0000000000        0.6105964654       -0.0458335609
       51.0000000000        0.5764664600       -0.0245153108
       52.0000000000        0.5591850954       -0.0165760847
       53.0000000000        0.5423204466       -0.0177985080
       54.0000000000        0.5241134674       -0.0178011469
       55.0000000000        0.5079963652       -0.0143519012
       56.0000000000        0.4941855338       -0.0143474919
       57.0000000000        0.4774990538       -0.0193142158
       58.0000000000        0.4567264062       -0.0209316196
       59.0000000000        0.4386652815       -0.0137753420
       60.0000000000        0.4313272942       -0.0001824079
       61.0000000000        0.4391500869        0.0160059737
       62.0000000000        0.4632288400        0.0318282504
       63.0000000000        0.5054531394        0.0436156745
       64.0000000000        0.5517729946        0.0477087763
       65.0000000000        0.5994220217        0.0478111815
       66.0000000000        0.6498495389        0.0549171619
       67.0000000000        0.7124903866        0.0710762635
       68.0000000000        0.7900159088        0.0809254564
       69.0000000000        0.8647409321        0.0607245041
       70.0000000000        0.8997990408        0.0054511932
       71.0000000000        0.8758070701       -0.0493362821
       72.0000000000        0.8137498602       -0.0679223916
       73.0000000000        0.7512234230       -0.0531648880
       74.0000000000        0.7123146617       -0.0233643544
       75.0000000000        0.7058561523        0.0108163114
       76.0000000000        0.7346794974        0.0473256055
       77.0000000000        0.8020081386        0.0883880725
       78.0000000000        0.9142610592        0.1378678511
       79.0000000000        1.0855648390        0.1994970205
       80.0000000000        1.3210164507        0.2728198729
       81.0000000000        1.6349440243        0.3432486675
       82.0000000000        1.9956362943        0.3636737076
       83.0000000000        2.3193170372        0.2568332159
       84.0000000000        2.4587507133        0.0050437392
       85.0000000000        2.3271245670       -0.2532015098
       86.0000000000        2.0012956542       -0.3713588284
       87.0000000000        1.6288742476       -0.3581559945
       88.0000000000        1.3024811126       -0.2910990679
       89.0000000000        1.0476133007       -0.2200750841
       90.0000000000        0.8579762877       -0.1616527348
       91.0000000000        0.7196125770       -0.1171982741
       92.0000000000        0.6199170219       -0.0837288102
       93.0000000000        0.5496262833       -0.0578713564
       94.0000000000        0.5025336041       -0.0369735366
       95.0000000000        0.4755717510       -0.0195491769
       96.0000000000        0.4631610854       -0.0061288635
       97.0000000000        0.4608680560       -0.0001036840
       98.0000000000        0.4590656502       -0.0054595063
       99.0000000000        0.4472810513       -0.0184319102
      100.0000000000        0.4238139405       -0.0268506799
      101.0000000000        0.3972698390       -0.0245678526
      102.0000000000        0.3771618301       -0.0148297814
      103.0000000000        0.3720620181       -0.0018589446
      104.0000000000        0.3772238518        0.0123026199
      105.0000000000        0.3966780080        0.0264203031
      106.0000000000        0.4289075403        0.0368809765
      107.0000000000        0.4664200444        0.0352017312
      108.0000000000        0.4943134365        0.0127951070
      109.0000000000        0.4894868620       -0.0227711986
      110.0000000000        0.4523410080       -0.0482412289
      111.0000000000        0.3999666960       -0.0535175149
      112.0000000000        0.3494146258       -0.0464377396
      113.0000000000        0.3080812970       -0.0361926954
      114.0000000000        0.2766475096       -0.0269883709
      115.0000000000        0.2534228724       -0.0197953606
      116.0000000000        0.2364499297       -0.0144172399
      117.0000000000        0.2241298871       -0.0104169048
      118.0000000000        0.2152887471       -0.0074021461
      119.0000000000        0.2090961684       -0.0050785475
      120.0000000000        0.2049715183       -0.0032374268
      121.0000000000        0.2025095675       -0.0017329694
      122.0000000000        0.2014278414       -0.0004626805
      123.0000000000        0.2040925817        0.0006789126
      124.0000000000        0.2052801255        0.0016821007
      125.0000000000        0.2089089782        0.0026380259
      126.0000000000        0.2120009514        0.0035428539
      127.0000000000        0.2159929621        0.0044424190
      128.0000000000        0.2208923397        0.0053616043
      129.0000000000        0.2267306798        0.0063243387
      130.0000000000        0.2335636993        0.0073551919
      131.0000000000        0.2427661816        0.0084971514
      132.0000000000        0.2518772122        0.0097486419
      133.0000000000        0.2623173237        0.0111619794
      134.0000000000        0.2765077047        0.0128099041
      135.0000000000        0.2902345016        0.0146929076
      136.0000000000        0.3060048780        0.0169107168
      137.0000000000        0.3241986633        0.0195577354
      138.0000000000        0.3453048086        0.0227595843
      139.0000000000        0.3699587002        0.0266861139
      140.0000000000        0.3989953282        0.0315705202
      141.0000000000        0.4335258492        0.0377376235
      142.0000000000        0.4750487497        0.0456456176
      143.0000000000        0.5256116699        0.0559465028
      144.0000000000        0.5880446213        0.0695684393
      145.0000000000        0.6662834017        0.0878095364
      146.0000000000        0.7657702932        0.1123792706
      147.0000000000        0.8937852266        0.1451530962
      148.0000000000        1.0591323730        0.1869552199
      149.0000000000        1.2698873064        0.2339367069
      150.0000000000        1.5241981686        0.2709761378
      151.0000000000        1.7996546104        0.2720577369
      152.0000000000        2.0541168915        0.2330713011
      153.0000000000        2.2705963284        0.2086112219
      154.0000000000        2.4955340356        0.2535830227
      155.0000000000        2.7939724303        0.3448403420
      156.0000000000        3.1734681676        0.3881604986
      157.0000000000        3.5164678713        0.2616639980
      158.0000000000        3.6299545170       -0.0562723432
      159.0000000000        3.4033826435       -0.3760035778
      160.0000000000        2.9425560629       -0.5107846527
      161.0000000000        2.4379004890       -0.4796438650
      162.0000000000        2.0041604679       -0.3839843353
      163.0000000000        1.6700448114       -0.2865176136
      164.0000000000        1.4248600678       -0.2072748583
      165.0000000000        1.2489987378       -0.1473827372
      166.0000000000        1.1250414937       -0.1027820083
      167.0000000000        1.0398470669       -0.0691062437
      168.0000000000        0.9880385513       -0.0428165269
      169.0000000000        0.9562378909       -0.0214155635
      170.0000000000        0.9442376837       -0.0029377712
      171.0000000000        0.9498890414        0.0141127926
      172.0000000000        0.9724120439        0.0310075083
      173.0000000000        1.0122517439        0.0489464756
      174.0000000000        1.0710602695        0.0691517907
      175.0000000000        1.1517141606        0.0928222579
      176.0000000000        1.2581325714        0.1207288083
      177.0000000000        1.3943800708        0.1521656666
      178.0000000000        1.5626254171        0.1840946806
      179.0000000000        1.7621043367        0.2150806620
      180.0000000000        1.9958388075        0.2556671991
      181.0000000000        2.2835915183        0.3263334555
      182.0000000000        2.6627917555        0.4394048629
      183.0000000000        3.1763309440        0.5938001567
      184.0000000000        3.8583699006        0.7706139149
      185.0000000000        4.7037736322        0.9029015101
      186.0000000000        5.6102362123        0.8410162944
      187.0000000000        6.2790212937        0.4392159375
      188.0000000000        6.4170448248       -0.1646262808
      189.0000000000        6.0176645358       -0.5755931696
      190.0000000000        5.3892401559       -0.6302127562
      191.0000000000        4.8321679533       -0.4616732698
      192.0000000000        4.4897608035       -0.2181553962
      193.0000000000        4.3999372402        0.0394141916
      194.0000000000        4.5713554871        0.3059684721
      195.0000000000        5.0212880196        0.5937122403
      196.0000000000        5.7684849929        0.9019818000
      197.0000000000        6.8141471737        1.1726214854
      198.0000000000        8.0418041266        1.2248583173
      199.0000000000        9.0988058368        0.7926818239
      200.0000000000        9.4624987095       -0.1099683084
      201.0000000000        8.9057867340       -0.9365500434
      202.0000000000        7.7718095217       -1.2388687918
      203.0000000000        6.5721301579       -1.1131492390
      204.0000000000        5.5978933933       -0.8251125935
      205.0000000000        4.9244113852       -0.5243288904
      206.0000000000        4.5387161437       -0.2522186248
      207.0000000000        4.4110901556       -0.0067506926
      208.0000000000        4.5177552627        0.2153149092
      209.0000000000        4.8252455375        0.3857823230
      210.0000000000        5.2437144216        0.4182600103
      211.0000000000        5.5815593504        0.2164343278
      212.0000000000        5.6256883082       -0.1427922657
      213.0000000000        5.3380088470       -0.3951726355
      214.0000000000        4.9175303927       -0.4089105951
      215.0000000000        4.5741987965       -0.2604964457
      216.0000000000        4.4171360630       -0.0480054617
      217.0000000000        4.4854843634        0.1878231612
      218.0000000000        4.7988795361        0.4421766691
      219.0000000000        5.3744802093        0.7089957507
      220.0000000000        6.2046813375        0.9356938372
      221.0000000000        7.1830851719        0.9709129323
      222.0000000000        8.0122319632        0.6118635861
      223.0000000000        8.2869271276       -0.0888577562
      224.0000000000        7.8738928649       -0.6780426577
      225.0000000000        7.0781997769       -0.8424105200
      226.0000000000        6.2936090179       -0.6954460091
      227.0000000000        5.7135219335       -0.4661909857
      228.0000000000        5.3450855098       -0.2946415120
      229.0000000000        5.1009839725       -0.2022612199
      230.0000000000        4.9387821227       -0.1147603077
      231.0000000000        4.8921491232        0.0333012082
      232.0000000000        5.0270218616        0.2459548481
      233.0000000000        5.4015013704        0.5114729937
      234.0000000000        6.0672645878        0.8287074918
      235.0000000000        7.0735607760        1.1880521394
      236.0000000000        8.4364383569        1.5225200105
      237.0000000000       10.0522367424        1.6554135294
      238.0000000000       11.6066813997        1.3756913828
      239.0000000000       12.6701050009        0.7043248606
      240.0000000000       12.9596413073       -0.1408587540
      241.0000000000       12.3771249962       -1.0121034914
      242.0000000000       11.0207199050       -1.6279550257
      243.0000000000        9.2910306437       -1.7507269452
      244.0000000000        7.6430529789       -1.5147821044
      245.0000000000        6.2982937596       -1.1688918617
      246.0000000000        5.2942526503       -0.8483255357
      247.0000000000        4.5812512480       -0.5876932628
      248.0000000000        4.1011290982       -0.3800108052
      249.0000000000        3.8093155873       -0.2081274175
      250.0000000000        3.6783588902       -0.0559866117
      251.0000000000        3.6941665012        0.0861841880
      252.0000000000        3.8462455543        0.2139950832
      253.0000000000        4.1103473495        0.2971107007
      254.0000000000        4.4120596227        0.2885607718
      255.0000000000        4.6594277798        0.2007027842
      256.0000000000        4.8277777335        0.1547173735
      257.0000000000        5.0171487489        0.2486960750
      258.0000000000        5.3652164004        0.4610015905
      259.0000000000        5.9496118678        0.7034482898
      260.0000000000        6.7363904653        0.8365127407
      261.0000000000        7.5227636373        0.6743577388
      262.0000000000        7.9710089452        0.1856192680
      263.0000000000        7.8961227342       -0.2966501251
      264.0000000000        7.4989001774       -0.4413275090
      265.0000000000        7.1109257020       -0.3127465055
      266.0000000000        6.8734407634       -0.1851510879
      267.0000000000        6.6664195362       -0.2710599327
      268.0000000000        6.2701830717       -0.5311613306
      269.0000000000        5.6315919431       -0.7143832565
      270.0000000000        4.9105494184       -0.6974034146
      271.0000000000        4.2782562966       -0.5558341086
      272.0000000000        3.8081100323       -0.3844534650
      273.0000000000        3.5052551523       -0.2241873117
      274.0000000000        3.3542823444       -0.0798749482
      275.0000000000        3.3431599148        0.0575125186
      276.0000000000        3.4713467384        0.2010331876
      277.0000000000        3.7517819002        0.3641152655
      278.0000000000        4.2093619131        0.5560452067
      279.0000000000        4.8712639010        0.7686026124
      280.0000000000        5.7356451686        0.9454519316
      281.0000000000        6.7062391578        0.9535859314
      282.0000000000        7.5398946057        0.6611898093
      283.0000000000        7.9523586971        0.1477040606
      284.0000000000        7.8506666424       -0.3237676580
      285.0000000000        7.3841495551       -0.5616598794
      286.0000000000        6.8238429602       -0.5154046921
      287.0000000000        6.4187608249       -0.2747680404
      288.0000000000        6.2885572227        0.0093748326
      289.0000000000        6.4064120761        0.2019101274
      290.0000000000        6.6353952689        0.2281044502
      291.0000000000        6.8187332896        0.1228110719
      292.0000000000        6.8508385951       -0.0773128520
      293.0000000000        6.6214025536       -0.3986599120
      294.0000000000        6.0527521746       -0.7185101107
      295.0000000000        5.2535424988       -0.8399222307
      296.0000000000        4.4402522824       -0.7631605403
      297.0000000000        3.7534129541       -0.6058637609
      298.0000000000        3.2277944386       -0.4488357785
      299.0000000000        2.8465882150       -0.3184723784
      300.0000000000        2.5894930517       -0.2151404522
      301.0000000000        2.4172589126       -0.1320163119
      302.0000000000        2.3213367403       -0.0613030417
      303.0000000000        2.2927387388        0.0036150972
      304.0000000000        2.3351733329        0.0677385597
      305.0000000000        2.4353378188        0.1325751136
      306.0000000000        2.5990372086        0.1932282451
      307.0000000000        2.8161774932        0.2372440177
      308.0000000000        3.0665672304        0.2618990600
      309.0000000000        3.3447218192        0.3013899861
      310.0000000000        3.6904345828        0.4025591717
      311.0000000000        4.1740888931        0.5752282555
      312.0000000000        4.8551475745        0.7891791865
      313.0000000000        5.7396872361        0.9631323197
      314.0000000000        6.7112179124        0.9262912058
      315.0000000000        7.4576687155        0.4966851963
      316.0000000000        7.6093228636       -0.2034443540
      317.0000000000        7.1158481517       -0.7190684136
      318.0000000000        6.3114593802       -0.8225798872
      319.0000000000        5.5595848495       -0.6535483439
