# IR Spectrum
# X-Axis:  Frequency (cm-1)
# Y-Axis:  Epsilon
#                  X                   Y               DY/DX
        0.0000000000        0.0483280215        0.0022097457
        1.0000000000        0.0506302204        0.0023984021
        2.0000000000        0.0531329502        0.0026114574
        3.0000000000        0.0558626973        0.0028532316
        4.0000000000        0.0588507410        0.0031290306
        5.0000000000        0.0621342721        0.0034454244
        6.0000000000        0.0657578334        0.0038106193
        7.0000000000        0.0697751956        0.0042349622
        8.0000000000        0.0742518248        0.0047316309
        9.0000000000        0.0792681648        0.0053175904
       10.0000000000        0.0849240569        0.0060149349
       11.0000000000        0.0913447658        0.0068527944
       12.0000000000        0.0986893038        0.0078700806
       13.0000000000        0.1071620863        0.0091194895
       14.0000000000        0.1170294739        0.0106734038
       15.0000000000        0.1286435598        0.0126326776
       16.0000000000        0.1427589056        0.0151433045
       17.0000000000        0.1594582739        0.0184018123
       18.0000000000        0.1799091876        0.0227045028
       19.0000000000        0.2053533978        0.0284712017
       20.0000000000        0.2375330430        0.0362884595
       21.0000000000        0.2788652668        0.0469124530
       22.0000000000        0.3325513419        0.0610971021
       23.0000000000        0.4022768267        0.0788461450
       24.0000000000        0.4905340328        0.0972292948
       25.0000000000        0.5937438533        0.1063008311
       26.0000000000        0.6941042076        0.0885526114
       27.0000000000        0.7612320052        0.0376393457
       28.0000000000        0.7700267431       -0.0168161485
       29.0000000000        0.7391830823       -0.0380613295
       30.0000000000        0.7058301542       -0.0241102238
       31.0000000000        0.6971427693        0.0086859917
       32.0000000000        0.7258607579        0.0497398611
       33.0000000000        0.7984356265        0.0962871376
       34.0000000000        0.9199116746        0.1470435412
       35.0000000000        1.0933454749        0.1936410750
       36.0000000000        1.2993790831        0.2101348102
       37.0000000000        1.4902354657        0.1577283877
       38.0000000000        1.5910150055        0.0373255261
       39.0000000000        1.5734697845       -0.0717369042
       40.0000000000        1.4785170515       -0.1051691336
       41.0000000000        1.3816352437       -0.0837559338
       42.0000000000        1.3136669505       -0.0530888999
       43.0000000000        1.2724789161       -0.0309170115
       44.0000000000        1.2472148687       -0.0233387081
       45.0000000000        1.2148369958       -0.0478595234
       46.0000000000        1.1417012084       -0.1000114983
       47.0000000000        1.0199713249       -0.1376012077
       48.0000000000        0.8797693599       -0.1368769350
       49.0000000000        0.7544790911       -0.1113865918
       50.0000000000        0.6589513070       -0.0796241948
       51.0000000000        0.5964204060       -0.0499278467
       52.0000000000        0.5598913096       -0.0236094636
       53.0000000000        0.5485377049        0.0007244321
       54.0000000000        0.5612421528        0.0247212703
       55.0000000000        0.5979837278        0.0485973311
       56.0000000000        0.6571876563        0.0684712848
       57.0000000000        0.7300890132        0.0737274199
       58.0000000000        0.7958718902        0.0534356958
       59.0000000000        0.8312319939        0.0167633028
       60.0000000000        0.8328522191       -0.0104791054
       61.0000000000        0.8157125401       -0.0220362968
       62.0000000000        0.7967234948       -0.0268664078
       63.0000000000        0.7709853967       -0.0222403041
       64.0000000000        0.7576966760       -0.0016845762
       65.0000000000        0.7719213364        0.0316890517
       66.0000000000        0.8229401926        0.0706185077
       67.0000000000        0.9119149948        0.1055431832
       68.0000000000        1.0288474619        0.1198258153
       69.0000000000        1.1398475542        0.0947985246
       70.0000000000        1.2053939267        0.0315094219
       71.0000000000        1.1980771227       -0.0459942208
       72.0000000000        1.1191549724       -0.1063569987
       73.0000000000        0.9994232008       -0.1257517359
       74.0000000000        0.8798197618       -0.1091759828
       75.0000000000        0.7860562094       -0.0773031389
       76.0000000000        0.7298008177       -0.0438355117
       77.0000000000        0.7016104168       -0.0129983267
       78.0000000000        0.7031686376        0.0159814545
       79.0000000000        0.7337642075        0.0455535742
       80.0000000000        0.7966879507        0.0788719298
       81.0000000000        0.8951406536        0.1196142148
       82.0000000000        1.0398077945        0.1720275577
       83.0000000000        1.2443979563        0.2399273580
       84.0000000000        1.5247638505        0.3226441688
       85.0000000000        1.8894374547        0.4033498297
       86.0000000000        2.3133980584        0.4281926452
       87.0000000000        2.6966371409        0.3072657443
       88.0000000000        2.8687637997        0.0166056444
       89.0000000000        2.7255757108       -0.2861318817
       90.0000000000        2.3528250436       -0.4277492246
       91.0000000000        1.9224305532       -0.4148302637
       92.0000000000        1.5441455596       -0.3374104356
       93.0000000000        1.2502277675       -0.2545074379
       94.0000000000        1.0313753851       -0.1860378601
       95.0000000000        0.8726960325       -0.1337938682
       96.0000000000        0.7595206794       -0.0943444430
       97.0000000000        0.6810779140       -0.0637082119
       98.0000000000        0.6324416766       -0.0385481745
       99.0000000000        0.6050945402       -0.0165201147
      100.0000000000        0.5987704450        0.0035433873
      101.0000000000        0.6112178109        0.0206104658
      102.0000000000        0.6377737695        0.0310502886
      103.0000000000        0.6729272443        0.0330616020
      104.0000000000        0.7061591026        0.0343974892
      105.0000000000        0.7451819240        0.0455051718
      106.0000000000        0.7990703172        0.0617014338
      107.0000000000        0.8631131991        0.0613427320
      108.0000000000        0.9083371400        0.0219155183
      109.0000000000        0.8968124097       -0.0463130996
      110.0000000000        0.8216028093       -0.0979181349
      111.0000000000        0.7147485271       -0.1096811626
      112.0000000000        0.6108180248       -0.0957194006
      113.0000000000        0.5255052683       -0.0747783924
      114.0000000000        0.4605368020       -0.0557899811
      115.0000000000        0.4125314272       -0.0409101311
      116.0000000000        0.3774613381       -0.0297828742
      117.0000000000        0.3520147811       -0.0215126503
      118.0000000000        0.3337578586       -0.0152840521
      119.0000000000        0.3209733716       -0.0104813382
      120.0000000000        0.3124674390       -0.0066661635
      121.0000000000        0.3074154949       -0.0035305786
      122.0000000000        0.3081332493       -0.0008202535
      123.0000000000        0.3085189242        0.0015520499
      124.0000000000        0.3111765233        0.0037410619
      125.0000000000        0.3201509275        0.0058935060
      126.0000000000        0.3270881416        0.0079855389
      127.0000000000        0.3361430144        0.0101405497
      128.0000000000        0.3474137195        0.0124291204
      129.0000000000        0.3610704473        0.0149255664
      130.0000000000        0.3773617669        0.0177132520
      131.0000000000        0.3966265851        0.0208905771
      132.0000000000        0.4193127174        0.0245783460
      133.0000000000        0.4466371468        0.0289373664
      134.0000000000        0.4780992923        0.0341500309
      135.0000000000        0.5153106813        0.0404860825
      136.0000000000        0.5595619887        0.0482979722
      137.0000000000        0.6125571733        0.0580676341
      138.0000000000        0.6765699083        0.0704641981
      139.0000000000        0.7546710101        0.0864302666
      140.0000000000        0.8510622929        0.1073114098
      141.0000000000        0.9726905593        0.1350633769
      142.0000000000        1.1255070616        0.1724766781
      143.0000000000        1.3222076136        0.2236371595
      144.0000000000        1.5792520787        0.2942717442
      145.0000000000        1.9197110831        0.3918065943
      146.0000000000        2.3743818461        0.5237029872
      147.0000000000        2.9789290578        0.6901879892
      148.0000000000        3.7576935254        0.8632108603
      149.0000000000        4.6787692832        0.9475686466
      150.0000000000        5.5674373651        0.7717961721
      151.0000000000        6.0996867377        0.2404727635
      152.0000000000        6.0002190204       -0.4280863986
      153.0000000000        5.3282803210       -0.8540539720
      154.0000000000        4.4137908303       -0.9248996368
      155.0000000000        3.5455810759       -0.7933637717
      156.0000000000        2.8416825640       -0.6146544809
      157.0000000000        2.3117177705       -0.4574080986
      158.0000000000        1.9177335461       -0.3365038434
      159.0000000000        1.6280047321       -0.2476315158
      160.0000000000        1.4144629938       -0.1828269132
      161.0000000000        1.2566801535       -0.1350968447
      162.0000000000        1.1403350552       -0.0992201887
      163.0000000000        1.0555375401       -0.0714859834
      164.0000000000        0.9955329103       -0.0492658608
      165.0000000000        0.9558094609       -0.0306493316
      166.0000000000        0.9335244865       -0.0141699396
      167.0000000000        0.9271664727        0.0013972726
      168.0000000000        0.9363925709        0.0171854293
      169.0000000000        0.9619872550        0.0343224628
      170.0000000000        1.0058438704        0.0538629924
      171.0000000000        1.0706890816        0.0762639765
      172.0000000000        1.1613652564        0.0997534253
      173.0000000000        1.2707347818        0.1169009969
      174.0000000000        1.3883483665        0.1137487065
      175.0000000000        1.4888817594        0.0837725632
      176.0000000000        1.5545381179        0.0501820636
      177.0000000000        1.5994073530        0.0458300461
      178.0000000000        1.6578641585        0.0759143700
      179.0000000000        1.7587470598        0.1287885652
      180.0000000000        1.9303598034        0.1976460479
      181.0000000000        2.1691647433        0.2830375568
      182.0000000000        2.5031038033        0.3882406008
      183.0000000000        2.9512360696        0.5094157321
      184.0000000000        3.5180731038        0.6172250079
      185.0000000000        4.1556387221        0.6335933197
      186.0000000000        4.7213781079        0.4631753988
      187.0000000000        5.0321441230        0.1502366230
      188.0000000000        5.0532391152       -0.0732016728
      189.0000000000        4.9659116291       -0.0631377792
      190.0000000000        4.9869510817        0.1262418527
      191.0000000000        5.2457349920        0.3990357076
      192.0000000000        5.7904252641        0.6876353220
      193.0000000000        6.6010643674        0.9149958623
      194.0000000000        7.5658941494        0.9817661974
      195.0000000000        8.5064283799        0.8812885175
      196.0000000000        9.3211906350        0.7527698455
      197.0000000000       10.0007535715        0.5788343836
      198.0000000000       10.3752270032        0.0990788679
      199.0000000000       10.1001696362       -0.6617869036
      200.0000000000        9.1228664807       -1.2196302998
      201.0000000000        7.8246306175       -1.3037453254
      202.0000000000        6.6188095525       -1.0777564616
      203.0000000000        5.6972020293       -0.7622846370
      204.0000000000        5.0889425470       -0.4595498328
      205.0000000000        4.7667734700       -0.1900534809
      206.0000000000        4.6991021165        0.0510183276
      207.0000000000        4.8569811023        0.2562777812
      208.0000000000        5.1833625877        0.3746591074
      209.0000000000        5.5451538139        0.3116521618
      210.0000000000        5.7369599828        0.0481775405
      211.0000000000        5.6376767964       -0.2263078012
      212.0000000000        5.3521985839       -0.3062459103
      213.0000000000        5.0907131184       -0.1923888690
      214.0000000000        5.0001506491        0.0215571376
      215.0000000000        5.1554215402        0.2807781034
      216.0000000000        5.5807917307        0.5766869270
      217.0000000000        6.3233259637        0.9154231970
      218.0000000000        7.4201275387        1.2766618133
      219.0000000000        8.8482911654        1.5476857894
      220.0000000000       10.3969696499        1.4618604259
      221.0000000000       11.5608321060        0.7619196681
      222.0000000000       11.7968863828       -0.2936160387
      223.0000000000       11.1014078423       -0.9910840913
      224.0000000000       10.0320390953       -1.0582144014
      225.0000000000        9.0960114677       -0.7924752202
      226.0000000000        8.4349642564       -0.5559891294
      227.0000000000        7.9180405339       -0.5070324056
      228.0000000000        7.3955152655       -0.5311353109
      229.0000000000        6.9022281733       -0.4345296533
      230.0000000000        6.5825024337       -0.1835329259
      231.0000000000        6.5638813394        0.1552655739
      232.0000000000        6.9013468946        0.5195737865
      233.0000000000        7.5857500261        0.8297251255
      234.0000000000        8.4880325276        0.9187309460
      235.0000000000        9.2775951200        0.5807055199
      236.0000000000        9.5271263952       -0.1066152194
      237.0000000000        9.1104703951       -0.6809552537
      238.0000000000        8.2969221545       -0.8934409225
      239.0000000000        7.3843920967       -0.9208676415
      240.0000000000        6.4617308289       -0.9203616723
      241.0000000000        5.5642135245       -0.8597399043
      242.0000000000        4.7708002878       -0.7164187367
      243.0000000000        4.1425365039       -0.5390380184
      244.0000000000        3.6892685082       -0.3708733652
      245.0000000000        3.3933173404       -0.2245777970
      246.0000000000        3.2343356067       -0.0954629475
      247.0000000000        3.2000232448        0.0265322264
      248.0000000000        3.2883062289        0.1510835719
      249.0000000000        3.5048265168        0.2823426107
      250.0000000000        3.8517621202        0.4081527171
      251.0000000000        4.3053621490        0.4857470134
      252.0000000000        4.7873534924        0.4584366427
      253.0000000000        5.1938749896        0.3513508299
      254.0000000000        5.5110129463        0.3039487040
      255.0000000000        5.8449048558        0.3786487802
      256.0000000000        6.2692377808        0.4542557203
      257.0000000000        6.6960158180        0.3644670193
      258.0000000000        6.9464377648        0.1290249338
      259.0000000000        6.9844075863       -0.0215877362
      260.0000000000        6.9650737279        0.0019775294
      261.0000000000        6.9827533288        0.0078432598
      262.0000000000        6.9005029803       -0.2157635984
      263.0000000000        6.4975608068       -0.5908416329
      264.0000000000        5.7691118609       -0.8238060425
      265.0000000000        4.9357645821       -0.8112122443
      266.0000000000        4.1929724097       -0.6636598603
      267.0000000000        3.6159221621       -0.4919288446
      268.0000000000        3.2015632498       -0.3416244153
      269.0000000000        2.9226849015       -0.2197623653
      270.0000000000        2.7541961752       -0.1202169428
      271.0000000000        2.6777118306       -0.0343090708
      272.0000000000        2.6838211545        0.0463122897
      273.0000000000        2.7712215949        0.1296006833
      274.0000000000        2.9466681732        0.2238692535
      275.0000000000        3.2257904374        0.3386933260
      276.0000000000        3.6346727392        0.4854040299
      277.0000000000        4.2111844448        0.6756917778
      278.0000000000        5.0023928663        0.9141097865
      279.0000000000        6.0479834001        1.1759218107
      280.0000000000        7.3320617393        1.3682156665
      281.0000000000        8.7075351028        1.3328918838
      282.0000000000        9.8991403541        1.0115243447
      283.0000000000       10.6876925037        0.5562258012
      284.0000000000       10.9844517919        0.0123367102
      285.0000000000       10.6566638897       -0.6821677491
      286.0000000000        9.6606669237       -1.2536400849
      287.0000000000        8.2976575250       -1.3974641896
      288.0000000000        6.9816640194       -1.1974131804
      289.0000000000        5.9400429401       -0.8817773382
      290.0000000000        5.2079365418       -0.5941474589
      291.0000000000        4.7197061394       -0.4014673826
      292.0000000000        4.3729636477       -0.3240701957
      293.0000000000        4.0566507858       -0.3114080097
      294.0000000000        3.7590234876       -0.2747251752
      295.0000000000        3.5263058694       -0.1826487474
      296.0000000000        3.4047726579       -0.0573199345
      297.0000000000        3.4137691765        0.0743585835
      298.0000000000        3.5463948292        0.1839392116
      299.0000000000        3.7732085659        0.2229338197
      300.0000000000        3.9662929382        0.1427755933
      301.0000000000        4.0325313276       -0.0117052948
      302.0000000000        3.9657094095       -0.1010521729
      303.0000000000        3.8762164476       -0.0571911616
      304.0000000000        3.8827130551        0.0807255998
      305.0000000000        4.0500675478        0.2562641459
      306.0000000000        4.3912100345        0.4186768437
      307.0000000000        4.8575824706        0.4903307863
      308.0000000000        5.3089467678        0.3773415788
      309.0000000000        5.5578639477        0.1097491674
      310.0000000000        5.5520074167       -0.0902083485
      311.0000000000        5.4538396796       -0.0650070083
      312.0000000000        5.4777908953        0.1370517713
      313.0000000000        5.7440493230        0.3941298188
      314.0000000000        6.2389305123        0.5678399618
      315.0000000000        6.7919450825        0.4800138874
      316.0000000000        7.0774226660        0.0412068723
      317.0000000000        6.8368358763       -0.5044447028
      318.0000000000        6.1593321866       -0.7918475757
      319.0000000000        5.3585047909       -0.7703073120
