# IR Spectrum
# X-Axis:  Frequency (cm-1)
# Y-Axis:  Epsilon
#                  X                   Y               DY/DX
        0.0000000000        0.0495771073        0.0025530120
        1.0000000000        0.0522492927        0.0027966788
        2.0000000000        0.0551820733        0.0030752142
        3.0000000000        0.0584135864        0.0033954016
        4.0000000000        0.0619895613        0.0037657163
        5.0000000000        0.0659652580        0.0041968444
        6.0000000000        0.0704080142        0.0047023935
        7.0000000000        0.0754006308        0.0052998741
        8.0000000000        0.0810459233        0.0060120751
        9.0000000000        0.0874729168        0.0068690127
       10.0000000000        0.0948453881        0.0079107310
       11.0000000000        0.1033738009        0.0091913741
       12.0000000000        0.1133322075        0.0107851801
       13.0000000000        0.1250825006        0.0127953894
       14.0000000000        0.1391096283        0.0153675605
       15.0000000000        0.1560731880        0.0187094244
       16.0000000000        0.1768832416        0.0231199196
       17.0000000000        0.2028106493        0.0290292636
       18.0000000000        0.2356417425        0.0370456703
       19.0000000000        0.2779655280        0.0479804385
       20.0000000000        0.3329708512        0.0627322911
       21.0000000000        0.4048595771        0.0817029013
       22.0000000000        0.4971867468        0.1028904167
       23.0000000000        0.6086491909        0.1177160394
       24.0000000000        0.7243796497        0.1078025497
       25.0000000000        0.8132323718        0.0585919253
       26.0000000000        0.8379544909       -0.0079388336
       27.0000000000        0.8075430001       -0.0453950791
       28.0000000000        0.7619209439       -0.0397168914
       29.0000000000        0.7367810168       -0.0078472393
       30.0000000000        0.7494442536        0.0339950132
       31.0000000000        0.8054104694        0.0778100454
       32.0000000000        0.9037653999        0.1176065479
       33.0000000000        1.0362127001        0.1439052751
       34.0000000000        1.1813575895        0.1392268351
       35.0000000000        1.2970440107        0.0829990041
       36.0000000000        1.3351838180       -0.0074880006
       37.0000000000        1.2930216417       -0.0665649830
       38.0000000000        1.2253961546       -0.0595412897
       39.0000000000        1.1938455024       -0.0077878875
       40.0000000000        1.2174079328        0.0537996770
       41.0000000000        1.2932285789        0.0904211522
       42.0000000000        1.3767852054        0.0635017807
       43.0000000000        1.3954011673       -0.0348328299
       44.0000000000        1.3046565567       -0.1403621911
       45.0000000000        1.1360712878       -0.1848099961
       46.0000000000        0.9547046551       -0.1712168755
       47.0000000000        0.8010516961       -0.1347468058
       48.0000000000        0.6852557497       -0.0975600782
       49.0000000000        0.6041940633       -0.0653856176
       50.0000000000        0.5531235609       -0.0373134011
       51.0000000000        0.5285400215       -0.0123969827
       52.0000000000        0.5268646049        0.0079759996
       53.0000000000        0.5424480503        0.0181823343
       54.0000000000        0.5582063792        0.0097708694
       55.0000000000        0.5560206036       -0.0157462042
       56.0000000000        0.5275934537       -0.0388206768
       57.0000000000        0.4845850424       -0.0440687753
       58.0000000000        0.4442717303       -0.0350162008
       59.0000000000        0.4161025048       -0.0211607158
       60.0000000000        0.4014881669       -0.0085625813
       61.0000000000        0.3978583578        0.0008272006
       62.0000000000        0.4027676731        0.0091655073
       63.0000000000        0.4171597361        0.0202929686
       64.0000000000        0.4474760861        0.0351888878
       65.0000000000        0.4905586366        0.0505622528
       66.0000000000        0.5461295886        0.0583231798
       67.0000000000        0.6004895415        0.0462022821
       68.0000000000        0.6306432702        0.0114569966
       69.0000000000        0.6236033150       -0.0241700141
       70.0000000000        0.5906210335       -0.0374407072
       71.0000000000        0.5559930254       -0.0292178748
       72.0000000000        0.5354099478       -0.0111042219
       73.0000000000        0.5346289123        0.0097315299
       74.0000000000        0.5551831959        0.0315829945
       75.0000000000        0.5984749437        0.0555116757
       76.0000000000        0.6676588254        0.0838232708
       77.0000000000        0.7686156698        0.1196429785
       78.0000000000        0.9107238147        0.1668087987
       79.0000000000        1.1110392424        0.2292276660
       80.0000000000        1.3782860858        0.3075527697
       81.0000000000        1.7278261450        0.3898545194
       82.0000000000        2.1451537495        0.4319035398
       83.0000000000        2.5539782332        0.3480502114
       84.0000000000        2.7844887621        0.0874625653
       85.0000000000        2.7094253914       -0.2282055912
       86.0000000000        2.3763076687       -0.4065332245
       87.0000000000        1.9533968203       -0.4177048720
       88.0000000000        1.5678170795       -0.3469260381
       89.0000000000        1.2637671348       -0.2619571574
       90.0000000000        1.0398173776       -0.1885633993
       91.0000000000        0.8814079492       -0.1306822072
       92.0000000000        0.7741715794       -0.0856633596
       93.0000000000        0.7066442861       -0.0510808584
       94.0000000000        0.6682010321       -0.0280967681
       95.0000000000        0.6455373280       -0.0219219895
       96.0000000000        0.6188295656       -0.0338572525
       97.0000000000        0.5762151104       -0.0504820953
       98.0000000000        0.5218974578       -0.0556706998
       99.0000000000        0.4691612753       -0.0482538994
      100.0000000000        0.4272518186       -0.0351288343
      101.0000000000        0.3992122195       -0.0209586961
      102.0000000000        0.3852327368       -0.0070502820
      103.0000000000        0.3868858043        0.0066795871
      104.0000000000        0.4001991045        0.0196793898
      105.0000000000        0.4249719315        0.0286894460
      106.0000000000        0.4536989701        0.0260336548
      107.0000000000        0.4707556153        0.0051238919
      108.0000000000        0.4606326198       -0.0252019404
      109.0000000000        0.4241149603       -0.0448659025
      110.0000000000        0.3767931191       -0.0473759847
      111.0000000000        0.3325295490       -0.0403182778
      112.0000000000        0.2990524426       -0.0311609380
      113.0000000000        0.2720394470       -0.0231503302
      114.0000000000        0.2521550350       -0.0169051231
      115.0000000000        0.2377142874       -0.0122011248
      116.0000000000        0.2273678383       -0.0086542307
      117.0000000000        0.2201323110       -0.0059308565
      118.0000000000        0.2157474089       -0.0037769893
      119.0000000000        0.2128728760       -0.0020267876
      120.0000000000        0.2116029142       -0.0005505144
      121.0000000000        0.2117103751        0.0007405636
      122.0000000000        0.2130441211        0.0019113700
      123.0000000000        0.2186273089        0.0030502319
      124.0000000000        0.2222131706        0.0041191168
      125.0000000000        0.2268660891        0.0051895368
      126.0000000000        0.2326027670        0.0062914949
      127.0000000000        0.2394692657        0.0074540469
      128.0000000000        0.2475410448        0.0087072456
      129.0000000000        0.2569248918        0.0100840101
      130.0000000000        0.2677627712        0.0116221317
      131.0000000000        0.2818171498        0.0133864337
      132.0000000000        0.2961823704        0.0153928755
      133.0000000000        0.3134206661        0.0177389992
      134.0000000000        0.3324988200        0.0204958672
      135.0000000000        0.3545902199        0.0237874106
      136.0000000000        0.3803020605        0.0277659183
      137.0000000000        0.4104183292        0.0326356636
      138.0000000000        0.4459619965        0.0386747066
      139.0000000000        0.4882838348        0.0462670617
      140.0000000000        0.5391906937        0.0559505002
      141.0000000000        0.6011324493        0.0684875674
      142.0000000000        0.6774755750        0.0849695020
      143.0000000000        0.7729007677        0.1069611183
      144.0000000000        0.8939634882        0.1366766275
      145.0000000000        1.0498164377        0.1771008113
      146.0000000000        1.2529047601        0.2317181172
      147.0000000000        1.5188086707        0.3028070383
      148.0000000000        1.8627074932        0.3858474738
      149.0000000000        2.2871951161        0.4575746905
      150.0000000000        2.7577150619        0.4687540750
      151.0000000000        3.1925411451        0.3876283437
      152.0000000000        3.5251312624        0.2849892361
      153.0000000000        3.7937029497        0.2674394615
      154.0000000000        4.0784615332        0.2978084496
      155.0000000000        4.3489487148        0.2091510474
      156.0000000000        4.4215353163       -0.0946024787
      157.0000000000        4.1406556080       -0.4523108136
      158.0000000000        3.5808908881       -0.6282214570
      159.0000000000        2.9523364763       -0.6043576565
      160.0000000000        2.4009963880       -0.4922610186
      161.0000000000        1.9697225010       -0.3725841178
      162.0000000000        1.6486011140       -0.2738037291
      163.0000000000        1.4140798235       -0.1989224697
      164.0000000000        1.2458891183       -0.1433763666
      165.0000000000        1.1242282871       -0.1018874817
      166.0000000000        1.0388898968       -0.0701099787
      167.0000000000        0.9818479938       -0.0448422328
      168.0000000000        0.9478212739       -0.0237458140
      169.0000000000        0.9335581152       -0.0050550309
      170.0000000000        0.9373885708        0.0126632237
      171.0000000000        0.9589904749        0.0306996809
      172.0000000000        0.9993259112        0.0503541806
      173.0000000000        1.0607069026        0.0730368487
      174.0000000000        1.1469084910        0.1002392588
      175.0000000000        1.2631079036        0.1331713280
      176.0000000000        1.4152109122        0.1719236850
      177.0000000000        1.6085139167        0.2154502925
      178.0000000000        1.8484674932        0.2664837733
      179.0000000000        2.1483782510        0.3382967628
      180.0000000000        2.5384022273        0.4448681896
      181.0000000000        3.0490331094        0.5783538863
      182.0000000000        3.6879755930        0.6880551999
      183.0000000000        4.3792081127        0.6586980622
      184.0000000000        4.9154191607        0.3669254809
      185.0000000000        5.0616522708       -0.1053867582
      186.0000000000        4.7605383672       -0.4525374253
      187.0000000000        4.2522057740       -0.5213938458
      188.0000000000        3.7791364577       -0.4060392563
      189.0000000000        3.4600062461       -0.2283671226
      190.0000000000        3.3245347971       -0.0427536794
      191.0000000000        3.3746076508        0.1437520877
      192.0000000000        3.6162385692        0.3429528676
      193.0000000000        4.0697435925        0.5696742690
      194.0000000000        4.7660862829        0.8267722567
      195.0000000000        5.7217968116        1.0752368991
      196.0000000000        6.8719235302        1.1865109415
      197.0000000000        7.9745142271        0.9410262437
      198.0000000000        8.5918945504        0.2260055712
      199.0000000000        8.3705426239       -0.6470797307
      200.0000000000        7.4236822925       -1.1604794657
      201.0000000000        6.2113101181       -1.2009365600
      202.0000000000        5.1031442306       -0.9947206809
      203.0000000000        4.2368341335       -0.7392114564
      204.0000000000        3.6136050710       -0.5129924426
      205.0000000000        3.1961129032       -0.3283727466
      206.0000000000        2.9462954042       -0.1753640999
      207.0000000000        2.8394248665       -0.0403688210
      208.0000000000        2.8628141593        0.0860421290
      209.0000000000        3.0078460593        0.2005766762
      210.0000000000        3.2501485466        0.2722870643
      211.0000000000        3.5168443305        0.2379277191
      212.0000000000        3.6785334882        0.0667530372
      213.0000000000        3.6389354833       -0.1366043674
      214.0000000000        3.4459109344       -0.2240055183
      215.0000000000        3.2365846826       -0.1766022546
      216.0000000000        3.1186535841       -0.0564131846
      217.0000000000        3.1351224635        0.0924177723
      218.0000000000        3.3121097099        0.2579345636
      219.0000000000        3.6595873556        0.4392648307
      220.0000000000        4.1910863810        0.6202091120
      221.0000000000        4.8780672148        0.7324197008
      222.0000000000        5.5863477815        0.6366465663
      223.0000000000        6.0487181437        0.2445476171
      224.0000000000        6.0401945049       -0.2470772726
      225.0000000000        5.6346214311       -0.5108898020
      226.0000000000        5.1144868370       -0.4940386892
      227.0000000000        4.6854454760       -0.3588823248
      228.0000000000        4.3881992063       -0.2452124945
      229.0000000000        4.1773878100       -0.1804249035
      230.0000000000        4.0304754494       -0.1065817739
      231.0000000000        3.9819389675        0.0185105330
      232.0000000000        4.0909493322        0.1906100092
      233.0000000000        4.3832044777        0.4000914390
      234.0000000000        4.9045894722        0.6499789512
      235.0000000000        5.6976621740        0.9423508594
      236.0000000000        6.7939237086        1.2457477294
      237.0000000000        8.1558390479        1.4455902843
      238.0000000000        9.5856769232        1.3516284491
      239.0000000000       10.7431052892        0.9249799507
      240.0000000000       11.4248914768        0.4611269452
      241.0000000000       11.7146397043        0.1252268779
      242.0000000000       11.6274942290       -0.3463568030
      243.0000000000       10.9437154288       -1.0301723379
      244.0000000000        9.6363388083       -1.5151212710
      245.0000000000        8.0666820203       -1.5521998023
      246.0000000000        6.6255883349       -1.3035284945
      247.0000000000        5.4810300098       -0.9859768515
      248.0000000000        4.6421389184       -0.7002788346
      249.0000000000        4.0664323777       -0.4665078658
      250.0000000000        3.6980137090       -0.2766709113
      251.0000000000        3.5015116457       -0.1220845360
      252.0000000000        3.4402677983       -0.0090572903
      253.0000000000        3.4605957686        0.0357032909
      254.0000000000        3.4829999412       -0.0026211607
      255.0000000000        3.4463243264       -0.0664881181
      256.0000000000        3.3725682896       -0.0658473224
      257.0000000000        3.3435256611        0.0200365485
      258.0000000000        3.4296074811        0.1573209997
      259.0000000000        3.6617906427        0.3049794607
      260.0000000000        4.0242656164        0.4051561863
      261.0000000000        4.4248937548        0.3643855838
      262.0000000000        4.6874945973        0.1295765417
      263.0000000000        4.6648631752       -0.1640281596
      264.0000000000        4.4143576172       -0.3008232670
      265.0000000000        4.1303057941       -0.2407240096
      266.0000000000        3.9701250160       -0.0705149335
      267.0000000000        4.0031626493        0.1372595730
      268.0000000000        4.2436977358        0.3394838255
      269.0000000000        4.6603716153        0.4748339782
      270.0000000000        5.1343032551        0.4336087456
      271.0000000000        5.4434968732        0.1493345046
      272.0000000000        5.4042577008       -0.2161498971
      273.0000000000        5.0759921232       -0.3970301697
      274.0000000000        4.6901055417       -0.3440169827
      275.0000000000        4.4261279471       -0.1753860910
      276.0000000000        4.3412369448        0.0011300598
      277.0000000000        4.4156877345        0.1421564472
      278.0000000000        4.6225097779        0.2749876468
      279.0000000000        4.9790113043        0.4447191891
      280.0000000000        5.5134512077        0.6148653015
      281.0000000000        6.1599002282        0.6368706629
      282.0000000000        6.6794207492        0.3443681655
      283.0000000000        6.7661636417       -0.1823704141
      284.0000000000        6.3628016585       -0.5725729073
      285.0000000000        5.7391038962       -0.6209024793
      286.0000000000        5.1998802121       -0.4332457978
      287.0000000000        4.8964690578       -0.1717349765
      288.0000000000        4.8438416197        0.0522409800
      289.0000000000        4.9557687982        0.1410805268
      290.0000000000        5.0573282386        0.0294673936
      291.0000000000        4.9718864559       -0.2069195721
      292.0000000000        4.6554716493       -0.4125632808
      293.0000000000        4.1753665853       -0.5336287374
      294.0000000000        3.6173702597       -0.5670183892
      295.0000000000        3.0700092597       -0.5161003568
      296.0000000000        2.6000274311       -0.4205187483
      297.0000000000        2.2296610027       -0.3219519233
      298.0000000000        1.9507740057       -0.2389020203
      299.0000000000        1.7458567344       -0.1736861661
      300.0000000000        1.5986097449       -0.1228288485
      301.0000000000        1.4968801722       -0.0819496874
      302.0000000000        1.4326784026       -0.0471904099
      303.0000000000        1.4015175780       -0.0153986649
      304.0000000000        1.4017154897        0.0158619452
      305.0000000000        1.4335232209        0.0478938015
      306.0000000000        1.5015286455        0.0798494128
      307.0000000000        1.5960832522        0.1084736357
      308.0000000000        1.7173013367        0.1339914565
      309.0000000000        1.8661355268        0.1655431196
      310.0000000000        2.0586131301        0.2055376378
      311.0000000000        2.2779641585        0.2258754475
      312.0000000000        2.4861881008        0.1782206767
      313.0000000000        2.6076139728        0.0572802918
      314.0000000000        2.6045175844       -0.0527807511
      315.0000000000        2.5320140254       -0.0768044946
      316.0000000000        2.4748603358       -0.0298115793
      317.0000000000        2.4785121086        0.0432188028
      318.0000000000        2.5618927677        0.1254062547
      319.0000000000        2.7344327942        0.2222829210
