# IR Spectrum
# X-Axis:  Frequency (cm-1)
# Y-Axis:  Epsilon
#                  X                   Y               DY/DX
        0.0000000000        0.0443805426        0.0021882088
        1.0000000000        0.0466667152        0.0023883496
        2.0000000000        0.0491664083        0.0026160219
        3.0000000000        0.0519096425        0.0028763856
        4.0000000000        0.0549321927        0.0031758420
        5.0000000000        0.0582770046        0.0035224020
        6.0000000000        0.0619960404        0.0039261850
        7.0000000000        0.0661527117        0.0044001025
        8.0000000000        0.0708251184        0.0049608059
        9.0000000000        0.0761104166        0.0056300177
       10.0000000000        0.0821307794        0.0064364243
       11.0000000000        0.0890416396        0.0074184021
       12.0000000000        0.0970432416        0.0086279940
       13.0000000000        0.1063970495        0.0101367769
       14.0000000000        0.1174493566        0.0120445959
       15.0000000000        0.1306656479        0.0144926246
       16.0000000000        0.1466810092        0.0176827843
       17.0000000000        0.1663741296        0.0219058830
       18.0000000000        0.1909743831        0.0275794714
       19.0000000000        0.2222094250        0.0352884247
       20.0000000000        0.2624817074        0.0457910957
       21.0000000000        0.3150598257        0.0598587122
       22.0000000000        0.3835092238        0.0775515848
       23.0000000000        0.4705233120        0.0960927268
       24.0000000000        0.5728570280        0.1057765171
       25.0000000000        0.6731815081        0.0890062513
       26.0000000000        0.7390396227        0.0382566036
       27.0000000000        0.7477843634       -0.0177841246
       28.0000000000        0.7177087416       -0.0410852769
       29.0000000000        0.6806038632       -0.0284646776
       30.0000000000        0.6670058387        0.0030957536
       31.0000000000        0.6887723537        0.0408094992
       32.0000000000        0.7484602586        0.0780473130
       33.0000000000        0.8429304587        0.1094819393
       34.0000000000        0.9636830673        0.1295516836
       35.0000000000        1.0946889349        0.1270405606
       36.0000000000        1.2030817958        0.0813447957
       37.0000000000        1.2443527873       -0.0010972742
       38.0000000000        1.2080364111       -0.0629494082
       39.0000000000        1.1392975157       -0.0645191719
       40.0000000000        1.0942667036       -0.0206407397
       41.0000000000        1.1076378761        0.0373728062
       42.0000000000        1.1687008598        0.0793423199
       43.0000000000        1.2493167064        0.0706149003
       44.0000000000        1.2861097911       -0.0070229043
       45.0000000000        1.2268545959       -0.1086814266
       46.0000000000        1.0852499534       -0.1634904951
       47.0000000000        0.9199686476       -0.1594770781
       48.0000000000        0.7756125817       -0.1271216480
       49.0000000000        0.6665564956       -0.0917564842
       50.0000000000        0.5893837490       -0.0642338991
       51.0000000000        0.5350363631       -0.0456370525
       52.0000000000        0.4968193438       -0.0309500849
       53.0000000000        0.4732999998       -0.0159982688
       54.0000000000        0.4663465415       -0.0023468881
       55.0000000000        0.4681262989        0.0041720684
       56.0000000000        0.4706681849       -0.0009920057
       57.0000000000        0.4639608184       -0.0123622224
       58.0000000000        0.4482676756       -0.0171424208
       59.0000000000        0.4334902855       -0.0108232900
       60.0000000000        0.4287212572        0.0017888830
       61.0000000000        0.4370836928        0.0144823080
       62.0000000000        0.4559966497        0.0222157060
       63.0000000000        0.4793719060        0.0238473680
       64.0000000000        0.5039132085        0.0262163133
       65.0000000000        0.5385737265        0.0376439074
       66.0000000000        0.5858007602        0.0577591940
       67.0000000000        0.6542047392        0.0779635256
       68.0000000000        0.7364675065        0.0822054669
       69.0000000000        0.8070550376        0.0525902757
       70.0000000000        0.8324611310       -0.0047235957
       71.0000000000        0.8022062716       -0.0505375248
       72.0000000000        0.7440294264       -0.0598320202
       73.0000000000        0.6915538379       -0.0422007965
       74.0000000000        0.6630066066       -0.0140746642
       75.0000000000        0.6642400431        0.0167885314
       76.0000000000        0.6971993881        0.0495962986
       77.0000000000        0.7648729247        0.0867673333
       78.0000000000        0.8734469165        0.1320921335
       79.0000000000        1.0331632659        0.1896844500
       80.0000000000        1.2576795363        0.2615964840
       81.0000000000        1.5614248892        0.3405353039
       82.0000000000        1.9329849705        0.3932950358
       83.0000000000        2.3203635564        0.3465417807
       84.0000000000        2.5748744534        0.1354877341
       85.0000000000        2.5606949890       -0.1624235005
       86.0000000000        2.2849943196       -0.3611280584
       87.0000000000        1.8942278735       -0.3974451015
       88.0000000000        1.5207428988       -0.3412664852
       89.0000000000        1.2184406876       -0.2633192401
       90.0000000000        0.9909433967       -0.1940839145
       91.0000000000        0.8251849437       -0.1398711686
       92.0000000000        0.7068813177       -0.0985807884
       93.0000000000        0.6249574950       -0.0665139320
       94.0000000000        0.5718081661       -0.0406390287
       95.0000000000        0.5420767354       -0.0196759109
       96.0000000000        0.5302569709       -0.0054543874
       97.0000000000        0.5281681996       -0.0032809489
       98.0000000000        0.5196481321       -0.0158045495
       99.0000000000        0.4949827334       -0.0328468083
      100.0000000000        0.4574905723       -0.0398387507
      101.0000000000        0.4194609185       -0.0346360609
      102.0000000000        0.3902723240       -0.0231755834
      103.0000000000        0.3736949268       -0.0098498205
      104.0000000000        0.3734306571        0.0039965802
      105.0000000000        0.3844289422        0.0179702464
      106.0000000000        0.4089244591        0.0304654280
      107.0000000000        0.4430451716        0.0358343941
      108.0000000000        0.4749631376        0.0245165983
      109.0000000000        0.4855098971       -0.0056596152
      110.0000000000        0.4631938667       -0.0371295867
      111.0000000000        0.4173500704       -0.0511583156
      112.0000000000        0.3689582544       -0.0486548488
      113.0000000000        0.3246860449       -0.0394591273
      114.0000000000        0.2901232112       -0.0298672000
      115.0000000000        0.2643623005       -0.0219847008
      116.0000000000        0.2455194766       -0.0159904726
      117.0000000000        0.2318741174       -0.0115177937
      118.0000000000        0.2221145885       -0.0081561568
      119.0000000000        0.2153017154       -0.0055778774
      120.0000000000        0.2107775681       -0.0035457391
      121.0000000000        0.2080843000       -0.0018930461
      122.0000000000        0.2069043715       -0.0005027691
      123.0000000000        0.2084198291        0.0007260038
      124.0000000000        0.2097003006        0.0018194609
      125.0000000000        0.2120348696        0.0028409611
      126.0000000000        0.2153704933        0.0038270793
      127.0000000000        0.2213236994        0.0048289766
      128.0000000000        0.2266519035        0.0058333967
      129.0000000000        0.2330067587        0.0068866329
      130.0000000000        0.2404503163        0.0080153825
      131.0000000000        0.2490722796        0.0092485296
      132.0000000000        0.2589930456        0.0106188832
      133.0000000000        0.2703686033        0.0121651867
      134.0000000000        0.2856075506        0.0139622581
      135.0000000000        0.3015098277        0.0160259839
      136.0000000000        0.3187069302        0.0184349996
      137.0000000000        0.3385307966        0.0212979330
      138.0000000000        0.3614962095        0.0247425181
      139.0000000000        0.3882659637        0.0289394933
      140.0000000000        0.4197022563        0.0341205086
      141.0000000000        0.4569399208        0.0406044811
      142.0000000000        0.5014919404        0.0488366522
      143.0000000000        0.5554028146        0.0594463995
      144.0000000000        0.6214722381        0.0733313336
      145.0000000000        0.7035786245        0.0917731636
      146.0000000000        0.8071312152        0.1165739746
      147.0000000000        0.9396413757        0.1501340390
      148.0000000000        1.1112348736        0.1951727240
      149.0000000000        1.3343751380        0.2532016701
      150.0000000000        1.6206641288        0.3198020661
      151.0000000000        1.9706207559        0.3755259237
      152.0000000000        2.3558667214        0.3842375230
      153.0000000000        2.7183939592        0.3342137871
      154.0000000000        3.0270085701        0.2927788724
      155.0000000000        3.3321131715        0.3310096961
      156.0000000000        3.7008128264        0.4008557761
      157.0000000000        4.0939315538        0.3515466944
      158.0000000000        4.3247323288        0.0664416090
      159.0000000000        4.1875629330       -0.3368563895
      160.0000000000        3.7039134403       -0.5902758239
      161.0000000000        3.0851756883       -0.6159072051
      162.0000000000        2.5126450904       -0.5188124946
      163.0000000000        2.0548543835       -0.3976352282
      164.0000000000        1.7114746859       -0.2931082302
      165.0000000000        1.4605621505       -0.2128135644
      166.0000000000        1.2790277804       -0.1532563960
      167.0000000000        1.1489439376       -0.1090486051
      168.0000000000        1.0594464029       -0.0755477871
      169.0000000000        0.9974869894       -0.0493511013
      170.0000000000        0.9591595772       -0.0279299961
      171.0000000000        0.9406545491       -0.0094396287
      172.0000000000        0.9397844660        0.0075562047
      173.0000000000        0.9556768429        0.0242798088
      174.0000000000        0.9886400458        0.0418934857
      175.0000000000        1.0401662998        0.0616190996
      176.0000000000        1.1130278234        0.0847950435
      177.0000000000        1.2113581012        0.1127621756
      178.0000000000        1.3404534469        0.1463914943
      179.0000000000        1.5059716995        0.1855054056
      180.0000000000        1.7133569886        0.2305403395
      181.0000000000        1.9713499235        0.2888207650
      182.0000000000        2.3005265488        0.3754556314
      183.0000000000        2.7349151289        0.4993606903
      184.0000000000        3.3079846883        0.6481553077
      185.0000000000        4.0220949456        0.7669228257
      186.0000000000        4.7904400983        0.7301603315
      187.0000000000        5.3944646318        0.4044539179
      188.0000000000        5.5416290366       -0.1164824921
      189.0000000000        5.2129183302       -0.4954178757
      190.0000000000        4.6577657665       -0.5681321990
      191.0000000000        4.1435993259       -0.4398607929
      192.0000000000        3.7996401413       -0.2438583706
      193.0000000000        3.6582882590       -0.0389587255
      194.0000000000        3.7219944122        0.1675841633
      195.0000000000        3.9982417013        0.3887822229
      196.0000000000        4.5112646601        0.6400716729
      197.0000000000        5.2897693652        0.9208566694
      198.0000000000        6.3452037010        1.1758235990
      199.0000000000        7.5769104376        1.2326561399
      200.0000000000        8.6540176925        0.8276062489
      201.0000000000        9.0658736551       -0.0529725521
      202.0000000000        8.5626822223       -0.8922568538
      203.0000000000        7.4573136261       -1.2265860628
      204.0000000000        6.2551654508       -1.1290531536
      205.0000000000        5.2530379946       -0.8632594875
      206.0000000000        4.5311116467       -0.5845207041
      207.0000000000        4.0726396754       -0.3384138683
      208.0000000000        3.8439527866       -0.1230202235
      209.0000000000        3.8205465175        0.0738693861
      210.0000000000        3.9863088172        0.2534880847
      211.0000000000        4.3113449353        0.3826702726
      212.0000000000        4.7066598184        0.3766664575
      213.0000000000        4.9932665097        0.1633055376
      214.0000000000        4.9972539329       -0.1521001681
      215.0000000000        4.7353471526       -0.3358624950
      216.0000000000        4.3995719737       -0.3098410214
      217.0000000000        4.1630753687       -0.1551293365
      218.0000000000        4.1082728191        0.0503984327
      219.0000000000        4.2711555362        0.2785268265
      220.0000000000        4.6710400246        0.5232466161
      221.0000000000        5.3158698386        0.7603148308
      222.0000000000        6.1592734970        0.8964448688
      223.0000000000        7.0138980793        0.7495426500
      224.0000000000        7.5260010362        0.2212092311
      225.0000000000        7.4194463738       -0.4111066254
      226.0000000000        6.8118381350       -0.7356714329
      227.0000000000        6.0685560872       -0.7075186391
      228.0000000000        5.4440722784       -0.5351278634
      229.0000000000        4.9886079824       -0.3870141625
      230.0000000000        4.6486089210       -0.2985216853
      231.0000000000        4.3916645018       -0.2097469241
      232.0000000000        4.2512901435       -0.0762812294
      233.0000000000        4.2590090936        0.0971731308
      234.0000000000        4.4555693303        0.3010391956
      235.0000000000        4.8730214951        0.5410257125
      236.0000000000        5.5545739824        0.8316520860
      237.0000000000        6.5555964895        1.1787337908
      238.0000000000        7.9190956661        1.5434589265
      239.0000000000        9.6027765934        1.7843314968
      240.0000000000       11.3614550949        1.6477608569
      241.0000000000       12.7036438003        0.9382548585
      242.0000000000       13.0797856064       -0.2306590080
      243.0000000000       12.2593555692       -1.3454259800
      244.0000000000       10.5942959058       -1.8672434749
      245.0000000000        8.7253136836       -1.7943733377
      246.0000000000        7.0913027674       -1.4546619274
      247.0000000000        5.8233748644       -1.0872984904
      248.0000000000        4.8965527554       -0.7779939443
      249.0000000000        4.2483069979       -0.5350168511
      250.0000000000        3.8127852029       -0.3428991437
      251.0000000000        3.5518009070       -0.1830284893
      252.0000000000        3.4410777304       -0.0403483603
      253.0000000000        3.4679728126        0.0924149619
      254.0000000000        3.6198578285        0.2060212224
      255.0000000000        3.8615863408        0.2636844483
      256.0000000000        4.1127390750        0.2206181923
      257.0000000000        4.2785986259        0.1092875592
      258.0000000000        4.3524792193        0.0589379641
      259.0000000000        4.4432277973        0.1448247274
      260.0000000000        4.6774682532        0.3299302866
      261.0000000000        5.1109373604        0.5313772819
      262.0000000000        5.7065195159        0.6298910728
      263.0000000000        6.2855502156        0.4773351866
      264.0000000000        6.5724034898        0.0711161235
      265.0000000000        6.4397953882       -0.3005094110
      266.0000000000        6.0729966862       -0.3799025227
      267.0000000000        5.7651394259       -0.2072651823
      268.0000000000        5.6870242408        0.0519695963
      269.0000000000        5.8450743680        0.2386969518
      270.0000000000        6.0887909194        0.1963440551
      271.0000000000        6.1435492965       -0.1254004874
      272.0000000000        5.8187940325       -0.5054255094
      273.0000000000        5.2080957539       -0.6707065702
      274.0000000000        4.5551567757       -0.6070906126
      275.0000000000        4.0278426046       -0.4395521177
      276.0000000000        3.6815196554       -0.2535199889
      277.0000000000        3.5179389886       -0.0752333658
      278.0000000000        3.5287616612        0.0962264229
      279.0000000000        3.7092496108        0.2636390409
      280.0000000000        4.0497031805        0.4106671240
      281.0000000000        4.5063474732        0.4842283896
      282.0000000000        4.9723543298        0.4242391575
      283.0000000000        5.3231953117        0.2739435210
      284.0000000000        5.5369160728        0.1678936265
      285.0000000000        5.6770331582        0.1105587835
      286.0000000000        5.7334475267       -0.0145315290
      287.0000000000        5.6308585794       -0.1843192631
      288.0000000000        5.4085937763       -0.2281271443
      289.0000000000        5.2385579796       -0.0852376841
      290.0000000000        5.2740902231        0.1651435525
      291.0000000000        5.5672859576        0.4097592728
      292.0000000000        6.0434675378        0.5021694589
      293.0000000000        6.4630519974        0.2750291572
      294.0000000000        6.4899294084       -0.2488423449
      295.0000000000        5.9813589249       -0.7282861402
      296.0000000000        5.1414490550       -0.8971824768
      297.0000000000        4.2705534506       -0.8178249344
      298.0000000000        3.5337292800       -0.6515810261
      299.0000000000        2.9651186470       -0.4899728155
      300.0000000000        2.5429805586       -0.3599635719
      301.0000000000        2.2346411060       -0.2614230983
      302.0000000000        2.0120228402       -0.1872317613
      303.0000000000        1.8544880009       -0.1301625444
      304.0000000000        1.7479324421       -0.0844360590
      305.0000000000        1.6833132031       -0.0456493038
      306.0000000000        1.6607185531       -0.0102915843
      307.0000000000        1.6677044664        0.0243796248
      308.0000000000        1.7101215019        0.0609751756
      309.0000000000        1.7910876609        0.1018787719
      310.0000000000        1.9162463586        0.1499637799
      311.0000000000        2.1026582335        0.2105279828
      312.0000000000        2.3516085999        0.2914881044
      313.0000000000        2.6947572642        0.3995186555
      314.0000000000        3.1580752045        0.5312872817
      315.0000000000        3.7548097136        0.6557780861
      316.0000000000        4.4384391120        0.6844961896
      317.0000000000        5.0469970210        0.4868513786
      318.0000000000        5.3328579965        0.0628623290
      319.0000000000        5.1829351154       -0.3254626997
