# IR Spectrum
# X-Axis:  Frequency (cm-1)
# Y-Axis:  Epsilon
#                  X                   Y               DY/DX
        0.0000000000        0.0360568380        0.0012721204
        1.0000000000        0.0373681045        0.0013515556
        2.0000000000        0.0387623679        0.0014382508
        3.0000000000        0.0402473179        0.0015330861
        4.0000000000        0.0418315897        0.0016370754
        5.0000000000        0.0435249085        0.0017513902
        6.0000000000        0.0453382626        0.0018773900
        7.0000000000        0.0472841082        0.0020166580
        8.0000000000        0.0493766152        0.0021710463
        9.0000000000        0.0516319618        0.0023427305
       10.0000000000        0.0540686919        0.0025342779
       11.0000000000        0.0567081473        0.0027487335
       12.0000000000        0.0595749968        0.0029897264
       13.0000000000        0.0626978859        0.0032616062
       14.0000000000        0.0661102401        0.0035696156
       15.0000000000        0.0698512641        0.0039201123
       16.0000000000        0.0739671943        0.0043208565
       17.0000000000        0.0785128803        0.0047813854
       18.0000000000        0.0835537966        0.0053135056
       19.0000000000        0.0891686240        0.0059319488
       20.0000000000        0.0954525915        0.0066552487
       21.0000000000        0.1025218429        0.0075069314
       22.0000000000        0.1105192003        0.0085171444
       23.0000000000        0.1196218521        0.0097249145
       24.0000000000        0.1300517240        0.0111813121
       25.0000000000        0.1420896356        0.0129539424
       26.0000000000        0.1560948626        0.0151333960
       27.0000000000        0.1725325159        0.0178426270
       28.0000000000        0.1920123476        0.0212507308
       29.0000000000        0.2153444252        0.0255933495
       30.0000000000        0.2436198318        0.0312029598
       31.0000000000        0.2783283774        0.0385534054
       32.0000000000        0.3249901049        0.0483666163
       33.0000000000        0.3796026800        0.0615213915
       34.0000000000        0.4496002028        0.0793912273
       35.0000000000        0.5405197639        0.1036700591
       36.0000000000        0.6596774923        0.1361393992
       37.0000000000        0.8159086795        0.1778676355
       38.0000000000        1.0181070350        0.2274539233
       39.0000000000        1.2705058106        0.2753627913
       40.0000000000        1.5581373535        0.2901375458
       41.0000000000        1.8216151356        0.2187386007
       42.0000000000        1.9627760981        0.0535757523
       43.0000000000        1.9314784836       -0.1035978223
       44.0000000000        1.7926468349       -0.1543905956
       45.0000000000        1.6537970508       -0.1134458589
       46.0000000000        1.5734447241       -0.0490469003
       47.0000000000        1.5424346000       -0.0236500268
       48.0000000000        1.5014942750       -0.0696394292
       49.0000000000        1.3904082360       -0.1522115998
       50.0000000000        1.2094294762       -0.2000885160
       51.0000000000        1.0119518167       -0.1936792678
       52.0000000000        0.8342475314       -0.1596081108
       53.0000000000        0.6937569038       -0.1219282416
       54.0000000000        0.5883540669       -0.0901033242
       55.0000000000        0.5111286663       -0.0654699074
       56.0000000000        0.4566793253       -0.0467340674
       57.0000000000        0.4174664093       -0.0322746560
       58.0000000000        0.3911821357       -0.0206695542
       59.0000000000        0.3755448740       -0.0108192096
       60.0000000000        0.3707501037       -0.0018282498
       61.0000000000        0.3733286457        0.0070270682
       62.0000000000        0.3850141777        0.0165152952
       63.0000000000        0.4068492387        0.0274803185
       64.0000000000        0.4408127869        0.0409696757
       65.0000000000        0.4900768463        0.0583354013
       66.0000000000        0.5593289561        0.0812384996
       67.0000000000        0.6549371762        0.1112434650
       68.0000000000        0.7841685508        0.1481053430
       69.0000000000        0.9513058874        0.1849226465
       70.0000000000        1.1468892556        0.1997139447
       71.0000000000        1.3329464213        0.1568319125
       72.0000000000        1.4398428708        0.0498614990
       73.0000000000        1.4336313133       -0.0541394813
       74.0000000000        1.3564868875       -0.0866065644
       75.0000000000        1.2823575588       -0.0543993656
       76.0000000000        1.2540610955       -0.0029176834
       77.0000000000        1.2677427925        0.0224619250
       78.0000000000        1.2787558702       -0.0112109975
       79.0000000000        1.2294870175       -0.0901944159
       80.0000000000        1.1045284382       -0.1520430928
       81.0000000000        0.9431067748       -0.1628162382
       82.0000000000        0.7926744089       -0.1399174879
       83.0000000000        0.6685216392       -0.1083223082
       84.0000000000        0.5748556080       -0.0799496329
       85.0000000000        0.5065917440       -0.0575694760
       86.0000000000        0.4579283445       -0.0405369553
       87.0000000000        0.4241935886       -0.0274833254
       88.0000000000        0.4020562544       -0.0171554795
       89.0000000000        0.3893056035       -0.0085660711
       90.0000000000        0.3846025576       -0.0009456778
       91.0000000000        0.3873044940        0.0063439692
       92.0000000000        0.3978075104        0.0139013650
       93.0000000000        0.4158277244        0.0223449232
       94.0000000000        0.4437089601        0.0324302241
       95.0000000000        0.4821946359        0.0450492792
       96.0000000000        0.5349972212        0.0612301656
       97.0000000000        0.6060870614        0.0816527561
       98.0000000000        0.6993617151        0.1050697225
       99.0000000000        0.8150088659        0.1244510314
      100.0000000000        0.9424259598        0.1225046874
      101.0000000000        1.0473551277        0.0801308171
      102.0000000000        1.0928873361        0.0099777571
      103.0000000000        1.0744191693       -0.0399565075
      104.0000000000        1.0283914598       -0.0451703794
      105.0000000000        0.9971183301       -0.0198840585
      106.0000000000        0.9952537978        0.0171314300
      107.0000000000        1.0325680360        0.0579609528
      108.0000000000        1.1123527309        0.1024306506
      109.0000000000        1.2397702213        0.1539812383
      110.0000000000        1.4244368112        0.2179448708
      111.0000000000        1.6820354734        0.3010612533
      112.0000000000        2.0353717597        0.4105217982
      113.0000000000        2.5131592096        0.5497269692
      114.0000000000        3.1407553506        0.7053158464
      115.0000000000        3.9115481595        0.8220726224
      116.0000000000        4.7367675653        0.7954534468
      117.0000000000        5.4321179149        0.5646303425
      118.0000000000        5.8284153038        0.2204375421
      119.0000000000        5.8679604207       -0.1515372202
      120.0000000000        5.5205477976       -0.5391130148
      121.0000000000        4.8295804959       -0.8081327900
      122.0000000000        3.9833314739       -0.8479578057
      123.0000000000        3.1861489593       -0.7311471717
      124.0000000000        2.5340835874       -0.5728458970
      125.0000000000        2.0341412149       -0.4320050642
      126.0000000000        1.6606257101       -0.3228633811
      127.0000000000        1.3801337909       -0.2423252797
      128.0000000000        1.1687409531       -0.1835245201
      129.0000000000        1.0079129269       -0.1402931084
      130.0000000000        0.8845285946       -0.1079851029
      131.0000000000        0.7894150903       -0.0832922487
      132.0000000000        0.7161903422       -0.0638823699
      133.0000000000        0.6604509355       -0.0480846877
      134.0000000000        0.6192345619       -0.0346545273
      135.0000000000        0.5906843096       -0.0226010407
      136.0000000000        0.5738636420       -0.0110542741
      137.0000000000        0.5725530435        0.0008977812
      138.0000000000        0.5799107820        0.0141298341
      139.0000000000        0.6016498420        0.0298845709
      140.0000000000        0.6410245413        0.0496848207
      141.0000000000        0.7029761265        0.0753519287
      142.0000000000        0.7942255653        0.1084428600
      143.0000000000        0.9221140494        0.1480298601
      144.0000000000        1.0895103897        0.1846525419
      145.0000000000        1.2814104985        0.1905362926
      146.0000000000        1.4460143772        0.1239407865
      147.0000000000        1.5076852018       -0.0168083031
      148.0000000000        1.4192329559       -0.1504247385
      149.0000000000        1.2344052545       -0.2049215848
      150.0000000000        1.0319126030       -0.1926290690
      151.0000000000        0.8572473265       -0.1552573364
      152.0000000000        0.7213348128       -0.1174961766
      153.0000000000        0.6197452068       -0.0870441802
      154.0000000000        0.5446667876       -0.0642791571
      155.0000000000        0.4891536250       -0.0476158616
      156.0000000000        0.4479635151       -0.0353806600
      157.0000000000        0.4173578024       -0.0262616308
      158.0000000000        0.3947179601       -0.0193189599
      159.0000000000        0.3782146991       -0.0138984159
      160.0000000000        0.3665666166       -0.0095458450
      161.0000000000        0.3588742136       -0.0059426275
      162.0000000000        0.3545082031       -0.0028608613
      163.0000000000        0.3530349360       -0.0001330675
      164.0000000000        0.3541668647        0.0023682674
      165.0000000000        0.3577300213        0.0047447307
      166.0000000000        0.3636433317        0.0070819312
      167.0000000000        0.3719065093        0.0094569254
      168.0000000000        0.3825945794        0.0119442028
      169.0000000000        0.3958580077        0.0146210269
      170.0000000000        0.4119281220        0.0175727825
      171.0000000000        0.4325217286        0.0209164320
      172.0000000000        0.4553020195        0.0247382349
      173.0000000000        0.4822134209        0.0292071473
      174.0000000000        0.5139965629        0.0345188445
      175.0000000000        0.5541507677        0.0409627729
      176.0000000000        0.5989052524        0.0488220462
      177.0000000000        0.6524324398        0.0586000454
      178.0000000000        0.7169603721        0.0709518784
      179.0000000000        0.7954973276        0.0868000007
      180.0000000000        0.8921583281        0.1074610930
      181.0000000000        1.0126478276        0.1348353195
      182.0000000000        1.1649725197        0.1716808461
      183.0000000000        1.3604764112        0.2219817443
      184.0000000000        1.6152665451        0.2913340282
      185.0000000000        1.9518978026        0.3869625560
      186.0000000000        2.4003911755        0.5159914643
      187.0000000000        2.9951507781        0.6779483215
      188.0000000000        3.7580506037        0.8427960420
      189.0000000000        4.6491186826        0.9092791507
      190.0000000000        5.4827231096        0.6965916520
      191.0000000000        5.9190769943        0.1295537959
      192.0000000000        5.7192588644       -0.5012367420
      193.0000000000        5.0252515671       -0.8218620774
      194.0000000000        4.1872537696       -0.8137660473
      195.0000000000        3.4460583109       -0.6577509601
      196.0000000000        2.8772588759       -0.4822792477
      197.0000000000        2.4723803757       -0.3329225428
      198.0000000000        2.2008669004       -0.2148646439
      199.0000000000        2.0345805943       -0.1209181468
      200.0000000000        1.9540093501       -0.0420027609
      201.0000000000        1.9483647997        0.0302574311
      202.0000000000        2.0138595703        0.1035837369
      203.0000000000        2.1574383512        0.1857265275
      204.0000000000        2.3910888490        0.2852268897
      205.0000000000        2.7413314827        0.4112277914
      206.0000000000        3.2291525157        0.5699285024
      207.0000000000        3.8896867848        0.7527089015
      208.0000000000        4.7257674923        0.9061373057
      209.0000000000        5.6480774171        0.8981293194
      210.0000000000        6.4172019558        0.5864068549
      211.0000000000        6.7503542168        0.0750490855
      212.0000000000        6.6244580433       -0.2744408006
      213.0000000000        6.3098047755       -0.3118004475
      214.0000000000        6.0459243480       -0.2137612519
      215.0000000000        5.8604460667       -0.1735242709
      216.0000000000        5.6773876609       -0.1938762276
      217.0000000000        5.4837165869       -0.1872642765
      218.0000000000        5.2987753754       -0.1954833833
      219.0000000000        5.0533458105       -0.3148641096
      220.0000000000        4.6527699149       -0.4792058740
      221.0000000000        4.1335110306       -0.5339136632
      222.0000000000        3.6307148499       -0.4546946772
      223.0000000000        3.2452173739       -0.3112201733
      224.0000000000        3.0120301322       -0.1551632305
      225.0000000000        2.9337777829       -0.0019745438
      226.0000000000        3.0069476427        0.1475423984
      227.0000000000        3.2248568925        0.2838914481
      228.0000000000        3.5564264812        0.3635459814
      229.0000000000        3.9043707955        0.3014186030
      230.0000000000        4.0962178701        0.0576110691
      231.0000000000        4.0048136580       -0.2279885079
      232.0000000000        3.6933843337       -0.3618948847
      233.0000000000        3.3405326684       -0.3234998507
      234.0000000000        3.0759075558       -0.1978313697
      235.0000000000        2.9531805764       -0.0457040188
      236.0000000000        2.9870196504        0.1145760446
      237.0000000000        3.1851706414        0.2831792605
      238.0000000000        3.5544329151        0.4537543973
      239.0000000000        4.0791434538        0.5827740366
      240.0000000000        4.6693889785        0.5603628782
      241.0000000000        5.1080316174        0.2701020024
      242.0000000000        5.1476603633       -0.1960910459
      243.0000000000        4.7617097144       -0.5323494134
      244.0000000000        4.1769969648       -0.5958966826
      245.0000000000        3.6280589559       -0.4847843713
      246.0000000000        3.2245478147       -0.3197326553
      247.0000000000        2.9875962260       -0.1563540115
      248.0000000000        2.9061319612       -0.0099508912
      249.0000000000        2.9591985955        0.1104786312
      250.0000000000        3.1117692131        0.1848098942
      251.0000000000        3.3063482115        0.1929162524
      252.0000000000        3.4779700575        0.1428436456
      253.0000000000        3.5829951957        0.0664450802
      254.0000000000        3.6204499868        0.0193889700
      255.0000000000        3.6521643795        0.0607681372
      256.0000000000        3.7702688033        0.1850721239
      257.0000000000        4.0293567364        0.3299436238
      258.0000000000        4.4098799049        0.4146497162
      259.0000000000        4.8207559393        0.3903559536
      260.0000000000        5.1767988194        0.3274134386
      261.0000000000        5.5052172320        0.3465992794
      262.0000000000        5.8850012015        0.4055890109
      263.0000000000        6.2598775713        0.2986390226
      264.0000000000        6.3823358397       -0.0943710678
      265.0000000000        6.0455933365       -0.5595304439
      266.0000000000        5.3481718360       -0.7828971393
      267.0000000000        4.5768194819       -0.7374439841
      268.0000000000        3.9189433587       -0.5691591677
      269.0000000000        3.4435546054       -0.3832200415
      270.0000000000        3.1462992152       -0.2148057418
      271.0000000000        3.0079859890       -0.0639375056
      272.0000000000        3.0163754979        0.0808246244
      273.0000000000        3.1719763710        0.2324627147
      274.0000000000        3.4863550850        0.3986874253
      275.0000000000        3.9708273682        0.5677366293
      276.0000000000        4.6034117309        0.6787714776
      277.0000000000        5.2657673803        0.6021848813
      278.0000000000        5.7086535912        0.2442947372
      279.0000000000        5.7128410581       -0.2254289191
      280.0000000000        5.3285702648       -0.4874019608
      281.0000000000        4.8339374080       -0.4627231764
      282.0000000000        4.4546771642       -0.2822710321
      283.0000000000        4.2777153430       -0.0753550066
      284.0000000000        4.2826080292        0.0674802783
      285.0000000000        4.3650265173        0.0696049534
      286.0000000000        4.3724937768       -0.0701391283
      287.0000000000        4.2243325313       -0.2115603874
      288.0000000000        3.9946147537       -0.2232320676
      289.0000000000        3.8202499052       -0.1130011560
      290.0000000000        3.7903028396        0.0597927417
      291.0000000000        3.9499642690        0.2639043609
      292.0000000000        4.3268643444        0.4942298893
      293.0000000000        4.9450464888        0.7430142197
      294.0000000000        5.8026241461        0.9575692637
      295.0000000000        6.8005411777        0.9902397285
      296.0000000000        7.6546801421        0.6460941406
      297.0000000000        7.9950808583       -0.0185506484
      298.0000000000        7.6752266877       -0.5614803842
      299.0000000000        7.0201873014       -0.6767600525
      300.0000000000        6.4328225586       -0.4605373199
      301.0000000000        6.1446188676       -0.1041388572
      302.0000000000        6.2343626491        0.2829689004
      303.0000000000        6.6963731757        0.6251305289
      304.0000000000        7.4239254422        0.7812232087
      305.0000000000        8.1212345791        0.5296947882
      306.0000000000        8.3278084505       -0.1685028938
      307.0000000000        7.7748787097       -0.8918184302
      308.0000000000        6.6860808188       -1.2070857657
      309.0000000000        5.4889891742       -1.1433338960
      310.0000000000        4.4484767214       -0.9283384353
      311.0000000000        3.6333298697       -0.7069167947
      312.0000000000        3.0205673361       -0.5263881564
      313.0000000000        2.5656983055       -0.3900951021
      314.0000000000        2.2286137898       -0.2890922020
      315.0000000000        1.9790512192       -0.2135505877
      316.0000000000        1.7956790441       -0.1555797561
      317.0000000000        1.6639986857       -0.1093388937
      318.0000000000        1.5975100752       -0.0702292855
      319.0000000000        1.5448689846       -0.0354899130
