# IR Spectrum
# X-Axis:  Frequency (cm-1)
# Y-Axis:  Epsilon
#                  X                   Y               DY/DX
        0.0000000000        0.0357789027        0.0013273899
        1.0000000000        0.0371492257        0.0014145683
        2.0000000000        0.0386108232        0.0015101031
        3.0000000000        0.0401725692        0.0016150553
        4.0000000000        0.0418444806        0.0017306543
        5.0000000000        0.0436379010        0.0018583307
        6.0000000000        0.0455657216        0.0019997557
        7.0000000000        0.0476426449        0.0021568900
        8.0000000000        0.0498855039        0.0023320451
        9.0000000000        0.0523136487        0.0025279582
       10.0000000000        0.0549494188        0.0027478883
       11.0000000000        0.0578187222        0.0029957357
       12.0000000000        0.0609517502        0.0032761958
       13.0000000000        0.0643838665        0.0035949550
       14.0000000000        0.0681567198        0.0039589450
       15.0000000000        0.0723196472        0.0043766737
       16.0000000000        0.0769314580        0.0048586605
       17.0000000000        0.0820627203        0.0054180147
       18.0000000000        0.0877987192        0.0060712100
       19.0000000000        0.0942433193        0.0068391351
       20.0000000000        0.1015240606        0.0077485322
       21.0000000000        0.1097989541        0.0088339909
       22.0000000000        0.1192656474        0.0101407453
       23.0000000000        0.1301739379        0.0117286469
       24.0000000000        0.1428430709        0.0136778773
       25.0000000000        0.1576859653        0.0160972660
       26.0000000000        0.1752435842        0.0191365325
       27.0000000000        0.1962343101        0.0230044581
       28.0000000000        0.2216256422        0.0279959421
       29.0000000000        0.2527390324        0.0345319716
       30.0000000000        0.2914030081        0.0432168504
       31.0000000000        0.3401727771        0.0549131759
       32.0000000000        0.4026274386        0.0708154941
       33.0000000000        0.4837085338        0.0924331581
       34.0000000000        0.5898852586        0.1211786324
       35.0000000000        0.7283984083        0.1567354642
       36.0000000000        0.9075610290        0.1927952098
       37.0000000000        1.1119390956        0.2107014624
       38.0000000000        1.3143696339        0.1859286844
       39.0000000000        1.4715265940        0.1265643012
       40.0000000000        1.5751310856        0.0889335022
       41.0000000000        1.6670275856        0.1012579350
       42.0000000000        1.7792553219        0.1174576800
       43.0000000000        1.8788587268        0.0666198595
       44.0000000000        1.8863748929       -0.0583825965
       45.0000000000        1.7674357313       -0.1685215621
       46.0000000000        1.5772213108       -0.1989715738
       47.0000000000        1.3860318547       -0.1803590760
       48.0000000000        1.2147427388       -0.1652961857
       49.0000000000        1.0503086057       -0.1643810674
       50.0000000000        0.8884456718       -0.1567745966
       51.0000000000        0.7418734745       -0.1344610768
       52.0000000000        0.6214352257       -0.1063048821
       53.0000000000        0.5322140628       -0.0804303703
       54.0000000000        0.4626177645       -0.0596244307
       55.0000000000        0.4113738259       -0.0435707297
       56.0000000000        0.3742574224       -0.0311763507
       57.0000000000        0.3481641600       -0.0213604566
       58.0000000000        0.3315649998       -0.0132422084
       59.0000000000        0.3219271697       -0.0061551186
       60.0000000000        0.3190986619        0.0004616859
       61.0000000000        0.3228582414        0.0071017385
       62.0000000000        0.3334751799        0.0142632649
       63.0000000000        0.3517469710        0.0225163037
       64.0000000000        0.3810792382        0.0326051589
       65.0000000000        0.4198240581        0.0454438178
       66.0000000000        0.4733224030        0.0623627188
       67.0000000000        0.5464692902        0.0850478874
       68.0000000000        0.6459451563        0.1152821918
       69.0000000000        0.7797752707        0.1535817997
       70.0000000000        0.9543244690        0.1950806718
       71.0000000000        1.1651541484        0.2215617439
       72.0000000000        1.3810874406        0.1993868459
       73.0000000000        1.5435075638        0.1136430001
       74.0000000000        1.6059950322        0.0161847968
       75.0000000000        1.5933002704       -0.0325576074
       76.0000000000        1.5506359167       -0.0532881842
       77.0000000000        1.4773920546       -0.0994833861
       78.0000000000        1.3446106474       -0.1649155228
       79.0000000000        1.1588798799       -0.1982354027
       80.0000000000        0.9638506454       -0.1857848473
       81.0000000000        0.7945997428       -0.1511756516
       82.0000000000        0.6618550275       -0.1150242551
       83.0000000000        0.5623946547       -0.0851237811
       84.0000000000        0.4892297638       -0.0622965151
       85.0000000000        0.4358896335       -0.0452023367
       86.0000000000        0.4012133077       -0.0322169303
       87.0000000000        0.3742300546       -0.0221353000
       88.0000000000        0.3563200665       -0.0139295046
       89.0000000000        0.3459954855       -0.0068551450
       90.0000000000        0.3424333561       -0.0003120691
       91.0000000000        0.3453735215        0.0062378612
       92.0000000000        0.3550928001        0.0133411785
       93.0000000000        0.3729757671        0.0216127913
       94.0000000000        0.3994561202        0.0317078444
       95.0000000000        0.4371884687        0.0441692725
       96.0000000000        0.4884949319        0.0586419986
       97.0000000000        0.5541276228        0.0718712671
       98.0000000000        0.6288481255        0.0747362398
       99.0000000000        0.6958132044        0.0547220329
      100.0000000000        0.7324810116        0.0139979756
      101.0000000000        0.7274083960       -0.0206150090
      102.0000000000        0.7003125542       -0.0291034091
      103.0000000000        0.6761416146       -0.0169188428
      104.0000000000        0.6692323363        0.0037913807
      105.0000000000        0.6844246638        0.0267768876
      106.0000000000        0.7231730905        0.0509974022
      107.0000000000        0.7890841649        0.0778804773
      108.0000000000        0.8838944569        0.1099407852
      109.0000000000        1.0132692638        0.1505736450
      110.0000000000        1.1893451551        0.2041439130
      111.0000000000        1.4275398645        0.2756309846
      112.0000000000        1.7478144145        0.3684802602
      113.0000000000        2.1699950058        0.4769309004
      114.0000000000        2.6962400028        0.5671979618
      115.0000000000        3.2705845263        0.5549318682
      116.0000000000        3.7384261865        0.3451718418
      117.0000000000        3.9121297308       -0.0027780042
      118.0000000000        3.7681387096       -0.2501627042
      119.0000000000        3.4903947649       -0.2696065219
      120.0000000000        3.2814383958       -0.1319966440
      121.0000000000        3.2439455018        0.0532117443
      122.0000000000        3.3757108204        0.1952772694
      123.0000000000        3.5862803827        0.1931236149
      124.0000000000        3.6896641649       -0.0188989284
      125.0000000000        3.5145308691       -0.3278552320
      126.0000000000        3.0773171893       -0.5160702262
      127.0000000000        2.5441709356       -0.5260884299
      128.0000000000        2.0559502011       -0.4427198630
      129.0000000000        1.6636669199       -0.3428383092
      130.0000000000        1.3651569923       -0.2574974376
      131.0000000000        1.1419442844       -0.1921018385
      132.0000000000        0.9753058225       -0.1436213217
      133.0000000000        0.8505367646       -0.1076629114
      134.0000000000        0.7570632309       -0.0804870941
      135.0000000000        0.6875805746       -0.0592821396
      136.0000000000        0.6372038048       -0.0419789262
      137.0000000000        0.6068871099       -0.0269516499
      138.0000000000        0.5869464815       -0.0129994581
      139.0000000000        0.5809491949        0.0011382090
      140.0000000000        0.5897098645        0.0167437889
      141.0000000000        0.6154173263        0.0352993140
      142.0000000000        0.6618551242        0.0584913453
      143.0000000000        0.7344443829        0.0877592762
      144.0000000000        0.8392518326        0.1224420828
      145.0000000000        0.9786928939        0.1546754343
      146.0000000000        1.1401773483        0.1610127963
      147.0000000000        1.2798227861        0.1056665625
      148.0000000000        1.3290405653       -0.0139652755
      149.0000000000        1.2580720908       -0.1289251511
      150.0000000000        1.0991479288       -0.1766169558
      151.0000000000        0.9243349076       -0.1665298974
      152.0000000000        0.7731971189       -0.1344536322
      153.0000000000        0.6554342791       -0.1018553021
      154.0000000000        0.5673407096       -0.0755019227
      155.0000000000        0.5022075295       -0.0557712913
      156.0000000000        0.4540413539       -0.0413122780
      157.0000000000        0.4183095580       -0.0306850124
      158.0000000000        0.3917748525       -0.0227580872
      159.0000000000        0.3721663453       -0.0167204630
      160.0000000000        0.3578942019       -0.0120077025
      161.0000000000        0.3478410519       -0.0082284549
      162.0000000000        0.3412182668       -0.0051088642
      163.0000000000        0.3374689964       -0.0024539846
      164.0000000000        0.3362031320       -0.0001217603
      165.0000000000        0.3371537290        0.0019944527
      166.0000000000        0.3401478998        0.0039777511
      167.0000000000        0.3450876238        0.0058959199
      168.0000000000        0.3519375491        0.0078073574
      169.0000000000        0.3621836706        0.0097838911
      170.0000000000        0.3729859057        0.0118415071
      171.0000000000        0.3859177665        0.0140525453
      172.0000000000        0.4011619437        0.0164767220
      173.0000000000        0.4214819607        0.0192142168
      174.0000000000        0.4421972120        0.0222846536
      175.0000000000        0.4662058586        0.0258197206
      176.0000000000        0.4940334167        0.0299462620
      177.0000000000        0.5263492687        0.0348271001
      178.0000000000        0.5640091720        0.0406748873
      179.0000000000        0.6081143480        0.0477718034
      180.0000000000        0.6600943489        0.0564980070
      181.0000000000        0.7218245287        0.0673733060
      182.0000000000        0.7957945281        0.0811189198
      183.0000000000        0.8853527610        0.0987498612
      184.0000000000        0.9950648952        0.1217136833
      185.0000000000        1.1312432205        0.1520977055
      186.0000000000        1.3027283970        0.1929307046
      187.0000000000        1.5220269604        0.2485913898
      188.0000000000        1.8068885717        0.3252525812
      189.0000000000        2.1822091444        0.4309719839
      190.0000000000        2.6813382205        0.5740189691
      191.0000000000        3.3432745452        0.7552490585
      192.0000000000        4.1955605460        0.9451164208
      193.0000000000        5.2024477729        1.0378047872
      194.0000000000        6.1713488199        0.8327437815
      195.0000000000        6.7266740940        0.2204996379
      196.0000000000        6.5726142348       -0.5040192685
      197.0000000000        5.8339839310       -0.8998080556
      198.0000000000        4.9042042210       -0.9106453767
      199.0000000000        4.0729930801       -0.7361249305
      200.0000000000        3.4408510737       -0.5298893115
      201.0000000000        3.0043173362       -0.3487973086
      202.0000000000        2.7323695385       -0.1999106692
      203.0000000000        2.6015603842       -0.0740167401
      204.0000000000        2.5846984819        0.0413173236
      205.0000000000        2.6840815440        0.1588859706
      206.0000000000        2.9074914743        0.2915164365
      207.0000000000        3.2762960994        0.4515632147
      208.0000000000        3.8223608072        0.6462058660
      209.0000000000        4.5757410810        0.8606784365
      210.0000000000        5.5260938199        1.0191896081
      211.0000000000        6.5378247782        0.9477262157
      212.0000000000        7.2865770711        0.4841042129
      213.0000000000        7.4287817617       -0.1982275326
      214.0000000000        6.9724989547       -0.6469866932
      215.0000000000        6.2696717108       -0.7044835945
      216.0000000000        5.6294628954       -0.5628169063
      217.0000000000        5.1451650587       -0.4114700934
      218.0000000000        4.7988215441       -0.2802450050
      219.0000000000        4.5958293382       -0.1179957159
      220.0000000000        4.5739103369        0.0749796704
      221.0000000000        4.7320173821        0.2250140356
      222.0000000000        4.9705046086        0.2159570433
      223.0000000000        5.0879969616       -0.0126647609
      224.0000000000        4.9202510369       -0.3124332542
      225.0000000000        4.5191328238       -0.4528284201
      226.0000000000        4.0823771182       -0.3944384982
      227.0000000000        3.7647342425       -0.2312733689
      228.0000000000        3.6290079509       -0.0391342873
      229.0000000000        3.6834617552        0.1438131599
      230.0000000000        3.8998485029        0.2748734212
      231.0000000000        4.1895913453        0.2749762994
      232.0000000000        4.3848018943        0.0823114586
      233.0000000000        4.3231871863       -0.2024503961
      234.0000000000        4.0204484479       -0.3703017330
      235.0000000000        3.6437864949       -0.3577010900
      236.0000000000        3.3395171669       -0.2408426731
      237.0000000000        3.1726729159       -0.0905551488
      238.0000000000        3.1604076880        0.0681238488
      239.0000000000        3.3118155018        0.2372715780
      240.0000000000        3.6419834564        0.4273232560
      241.0000000000        4.1748706968        0.6415866509
      242.0000000000        4.9240101330        0.8497183477
      243.0000000000        5.8368824531        0.9417811412
      244.0000000000        6.7027670643        0.7224858944
      245.0000000000        7.1486125136        0.1203316377
      246.0000000000        6.9241550031       -0.5361170906
      247.0000000000        6.1982552228       -0.8442598651
      248.0000000000        5.3573319595       -0.7940581027
      249.0000000000        4.6610167856       -0.5883730461
      250.0000000000        4.1802189757       -0.3811400964
      251.0000000000        3.8736130610       -0.2472779139
      252.0000000000        3.6574826503       -0.1951317330
      253.0000000000        3.4766978491       -0.1628940803
      254.0000000000        3.3472084159       -0.0866383177
      255.0000000000        3.3200354070        0.0385594538
      256.0000000000        3.4319510158        0.1864917471
      257.0000000000        3.6888565261        0.3209920888
      258.0000000000        4.0492474575        0.3806169381
      259.0000000000        4.4008823996        0.2963250467
      260.0000000000        4.6041243693        0.1058148780
      261.0000000000        4.6374616845       -0.0123311215
      262.0000000000        4.6423727410        0.0520119432
      263.0000000000        4.7871181580        0.2520183352
      264.0000000000        5.1577238252        0.4852817134
      265.0000000000        5.7260292320        0.6215497971
      266.0000000000        6.3113297786        0.4921376143
      267.0000000000        6.6015976867        0.0347777667
      268.0000000000        6.3561486838       -0.5071013716
      269.0000000000        5.6742403979       -0.8006241566
      270.0000000000        4.8577940559       -0.7924812150
      271.0000000000        4.1402643227       -0.6295608294
      272.0000000000        3.6084608026       -0.4344818002
      273.0000000000        3.2659919481       -0.2539836212
      274.0000000000        3.0940939136       -0.0922723841
      275.0000000000        3.0785280938        0.0606780827
      276.0000000000        3.2160239262        0.2149891880
      277.0000000000        3.5066814081        0.3687024475
      278.0000000000        3.9401598078        0.4865428134
      279.0000000000        4.4385363859        0.4800101256
      280.0000000000        4.8280676535        0.2637489719
      281.0000000000        4.9235647275       -0.0729101636
      282.0000000000        4.7239582704       -0.2917343046
      283.0000000000        4.4078329919       -0.3149554309
      284.0000000000        4.1190389662       -0.2623365705
      285.0000000000        3.8680591362       -0.2447196588
      286.0000000000        3.6194296124       -0.2500707534
      287.0000000000        3.3844532234       -0.2100726039
      288.0000000000        3.2199619147       -0.1109692400
      289.0000000000        3.1737019510        0.0222609842
      290.0000000000        3.2706728755        0.1746806001
      291.0000000000        3.5301473216        0.3485664106
      292.0000000000        3.9778527564        0.5522835400
      293.0000000000        4.6441536897        0.7829285275
      294.0000000000        5.5545348731        0.9925974029
      295.0000000000        6.5919983409        1.0367568888
      296.0000000000        7.4998785255        0.7032274583
      297.0000000000        7.8680902397       -0.0026384077
      298.0000000000        7.5152530937       -0.6497832609
      299.0000000000        6.7153360427       -0.8747999600
      300.0000000000        5.8845623099       -0.7466045501
      301.0000000000        5.2692448796       -0.4729174524
      302.0000000000        4.9478278178       -0.1689526397
      303.0000000000        4.9318078640        0.1373998462
      304.0000000000        5.2248271667        0.4498818432
      305.0000000000        5.8304458669        0.7566700822
      306.0000000000        6.7099684451        0.9742830967
      307.0000000000        7.6821045656        0.8996487008
      308.0000000000        8.3410493224        0.3373437924
      309.0000000000        8.2551318665       -0.5118324521
      310.0000000000        7.4091759625       -1.1010939490
      311.0000000000        6.2163396740       -1.2157221868
      312.0000000000        5.0711207405       -1.0490252148
      313.0000000000        4.1399156449       -0.8129079290
      314.0000000000        3.4362024689       -0.6017326889
      315.0000000000        2.9209810954       -0.4362114755
      316.0000000000        2.5503383654       -0.3108879800
      317.0000000000        2.2894257255       -0.2149503474
      318.0000000000        2.1360237064       -0.1382181031
      319.0000000000        2.0309580690       -0.0732507722
