# IR Spectrum
# X-Axis:  Frequency (cm-1)
# Y-Axis:  Epsilon
#                  X                   Y               DY/DX
        0.0000000000        0.0347999696        0.0012618374
        1.0000000000        0.0361017242        0.0013428668
        2.0000000000        0.0374882358        0.0014314978
        3.0000000000        0.0389675667        0.0015286744
        4.0000000000        0.0405487948        0.0016354875
        5.0000000000        0.0422421731        0.0017532017
        6.0000000000        0.0440593199        0.0018832892
        7.0000000000        0.0460134463        0.0020274708
        8.0000000000        0.0481196287        0.0021877661
        9.0000000000        0.0503951388        0.0023665570
       10.0000000000        0.0528598426        0.0025666651
       11.0000000000        0.0555366876        0.0027914506
       12.0000000000        0.0584523013        0.0030449359
       13.0000000000        0.0616377288        0.0033319634
       14.0000000000        0.0651293495        0.0036583976
       15.0000000000        0.0689700241        0.0040313860
       16.0000000000        0.0732105399        0.0044596981
       17.0000000000        0.0779114446        0.0049541710
       18.0000000000        0.0831453956        0.0055282989
       19.0000000000        0.0890001910        0.0061990214
       20.0000000000        0.0955827208        0.0069877878
       21.0000000000        0.1030241641        0.0079220094
       22.0000000000        0.1114868991        0.0090370640
       23.0000000000        0.1211737888        0.0103790926
       24.0000000000        0.1323408050        0.0120089525
       25.0000000000        0.1453144006        0.0140078699
       26.0000000000        0.1605157149        0.0164856270
       27.0000000000        0.1784947431        0.0195925602
       28.0000000000        0.1999791905        0.0235373369
       29.0000000000        0.2259451880        0.0286135064
       30.0000000000        0.2577207291        0.0352392736
       31.0000000000        0.2971379778        0.0440166129
       32.0000000000        0.3467572444        0.0558164934
       33.0000000000        0.4139716835        0.0719391971
       34.0000000000        0.4963717693        0.0940390688
       35.0000000000        0.6048006086        0.1243943494
       36.0000000000        0.7486469102        0.1651438528
       37.0000000000        0.9385434912        0.2159886605
       38.0000000000        1.1811466174        0.2677084530
       39.0000000000        1.4646989564        0.2906935483
       40.0000000000        1.7356835795        0.2339121713
       41.0000000000        1.8981853250        0.0785445375
       42.0000000000        1.8884873167       -0.0886180645
       43.0000000000        1.7547528072       -0.1590583988
       44.0000000000        1.6038726206       -0.1311063293
       45.0000000000        1.5038486763       -0.0689021025
       46.0000000000        1.4564922520       -0.0347231646
       47.0000000000        1.4122104681       -0.0649640633
       48.0000000000        1.3119756306       -0.1370336586
       49.0000000000        1.1466973642       -0.1852938442
       50.0000000000        0.9586148835       -0.1836733169
       51.0000000000        0.7926518485       -0.1535430305
       52.0000000000        0.6568469987       -0.1184275313
       53.0000000000        0.5540464819       -0.0882990999
       54.0000000000        0.4779670223       -0.0649358915
       55.0000000000        0.4222614869       -0.0473025335
       56.0000000000        0.3827179030       -0.0338807703
       57.0000000000        0.3542803546       -0.0233895271
       58.0000000000        0.3352997326       -0.0148237181
       59.0000000000        0.3242443170       -0.0074288155
       60.0000000000        0.3202526642       -0.0006046929
       61.0000000000        0.3253106920        0.0062024703
       62.0000000000        0.3350779281        0.0134572066
       63.0000000000        0.3525786252        0.0217774084
       64.0000000000        0.3792314508        0.0319018322
       65.0000000000        0.4173074543        0.0448132414
       66.0000000000        0.4702228445        0.0618320936
       67.0000000000        0.5428946089        0.0846227195
       68.0000000000        0.6419468516        0.1148038239
       69.0000000000        0.7749974054        0.1522739722
       70.0000000000        0.9468844326        0.1903938804
       71.0000000000        1.1489448674        0.2072979427
       72.0000000000        1.3435060797        0.1660396820
       73.0000000000        1.4588665060        0.0566148514
       74.0000000000        1.4559580610       -0.0547771240
       75.0000000000        1.3742874338       -0.0946278420
       76.0000000000        1.2893977405       -0.0677646682
       77.0000000000        1.2445680450       -0.0232975815
       78.0000000000        1.2324526763       -0.0092322321
       79.0000000000        1.2071957202       -0.0498237772
       80.0000000000        1.1239148007       -0.1159133776
       81.0000000000        0.9858300199       -0.1525461453
       82.0000000000        0.8333365258       -0.1468529358
       83.0000000000        0.7023240730       -0.1202271382
       84.0000000000        0.5968495666       -0.0911785786
       85.0000000000        0.5183728028       -0.0667201752
       86.0000000000        0.4615539724       -0.0477734771
       87.0000000000        0.4213259642       -0.0333220005
       88.0000000000        0.3938405859       -0.0220863894
       89.0000000000        0.3764467452       -0.0129780693
       90.0000000000        0.3674634918       -0.0051379621
       91.0000000000        0.3663843026        0.0021385399
       92.0000000000        0.3721568640        0.0094674701
       93.0000000000        0.3855475332        0.0174833248
       94.0000000000        0.4075795102        0.0268684712
       95.0000000000        0.4399740770        0.0383141772
       96.0000000000        0.4857734861        0.0521849129
       97.0000000000        0.5455509306        0.0673258078
       98.0000000000        0.6191976265        0.0785418076
       99.0000000000        0.6975454443        0.0744632045
      100.0000000000        0.7596002583        0.0456876447
      101.0000000000        0.7848112346        0.0053222023
      102.0000000000        0.7763189222       -0.0177319624
      103.0000000000        0.7584232096       -0.0142874407
      104.0000000000        0.7572931827        0.0051840096
      105.0000000000        0.7749349548        0.0306503399
      106.0000000000        0.8194308100        0.0587585606
      107.0000000000        0.8935476225        0.0902123360
      108.0000000000        1.0018437246        0.1276693501
      109.0000000000        1.1521702135        0.1750173414
      110.0000000000        1.3568458855        0.2373009992
      111.0000000000        1.6337094831        0.3203663335
      112.0000000000        2.0060324747        0.4285160618
      113.0000000000        2.4975745753        0.5562202636
      114.0000000000        3.1138629575        0.6681436058
      115.0000000000        3.7998651290        0.6771646480
      116.0000000000        4.4015041369        0.4922049817
      117.0000000000        4.7413658036        0.1858258529
      118.0000000000        4.8102068172       -0.0169534119
      119.0000000000        4.7627774423       -0.0630137985
      120.0000000000        4.6789365883       -0.1294161895
      121.0000000000        4.4544570323       -0.3406291745
      122.0000000000        3.9893664290       -0.5748164216
      123.0000000000        3.3578715780       -0.6578684218
      124.0000000000        2.7233012809       -0.5945552842
      125.0000000000        2.1864675449       -0.4764885204
      126.0000000000        1.7693092133       -0.3628223259
      127.0000000000        1.4539505355       -0.2719786054
      128.0000000000        1.2177057936       -0.2039446671
      129.0000000000        1.0400923170       -0.1538279660
      130.0000000000        0.9057428632       -0.1166715633
      131.0000000000        0.8037367121       -0.0885883667
      132.0000000000        0.7264950984       -0.0667443003
      133.0000000000        0.6688572885       -0.0490897924
      134.0000000000        0.6274323390       -0.0340948335
      135.0000000000        0.6037666150       -0.0204904259
      136.0000000000        0.5898677330       -0.0072754687
      137.0000000000        0.5894670539        0.0066987688
      138.0000000000        0.6039343322        0.0226892474
      139.0000000000        0.6360196813        0.0422110069
      140.0000000000        0.6901113051        0.0669900563
      141.0000000000        0.7722171644        0.0983453301
      142.0000000000        0.8886142183        0.1348659843
      143.0000000000        1.0404887511        0.1663831655
      144.0000000000        1.2107203622        0.1653720349
      145.0000000000        1.3477216444        0.0953312746
      146.0000000000        1.3851554522       -0.0352509767
      147.0000000000        1.2887316860       -0.1474025794
      148.0000000000        1.1158930746       -0.1859728544
      149.0000000000        0.9351953022       -0.1696768777
      150.0000000000        0.7823988789       -0.1350787925
      151.0000000000        0.6644513537       -0.1017718505
      152.0000000000        0.5765148355       -0.0753183097
      153.0000000000        0.5115486818       -0.0556269435
      154.0000000000        0.4635052999       -0.0412070044
      155.0000000000        0.4278711185       -0.0305900477
      156.0000000000        0.4014377941       -0.0226463457
      157.0000000000        0.3819581029       -0.0165717441
      158.0000000000        0.3678594077       -0.0118074492
      159.0000000000        0.3580370072       -0.0079655311
      160.0000000000        0.3517125041       -0.0047736722
      161.0000000000        0.3483384778       -0.0020370637
      162.0000000000        0.3475346603        0.0003872653
      163.0000000000        0.3490453033        0.0026077348
      164.0000000000        0.3527108934        0.0047100214
      165.0000000000        0.3584497830        0.0067653443
      166.0000000000        0.3662469116        0.0088365374
      167.0000000000        0.3761478735        0.0109827915
      168.0000000000        0.3882573304        0.0132636925
      169.0000000000        0.4027413164        0.0157430393
      170.0000000000        0.4212677012        0.0185108325
      171.0000000000        0.4412977167        0.0216163919
      172.0000000000        0.4646531943        0.0251809441
      173.0000000000        0.4940858016        0.0293623010
      174.0000000000        0.5258316166        0.0342715008
      175.0000000000        0.5629522393        0.0401533537
      176.0000000000        0.6065576939        0.0472966291
      177.0000000000        0.6580943128        0.0560910823
      178.0000000000        0.7194660233        0.0670708678
      179.0000000000        0.7932088333        0.0809789994
      180.0000000000        0.8827446940        0.0988638799
      181.0000000000        0.9927544860        0.1222242599
      182.0000000000        1.1297293206        0.1532251043
      183.0000000000        1.3027836786        0.1950090164
      184.0000000000        1.5248317468        0.2521073574
      185.0000000000        1.8141913217        0.3308484571
      186.0000000000        2.1964205412        0.4392699808
      187.0000000000        2.7051974187        0.5848239769
      188.0000000000        3.3779749116        0.7649976102
      189.0000000000        4.2347005747        0.9408528271
      190.0000000000        5.2188424308        0.9905369951
      191.0000000000        6.1056755983        0.7141903705
      192.0000000000        6.5173654037        0.0655705493
      193.0000000000        6.2312917702       -0.5985963550
      194.0000000000        5.4469005902       -0.9000004344
      195.0000000000        4.5466522249       -0.8605987904
      196.0000000000        3.7716016872       -0.6799860782
      197.0000000000        3.1899836760       -0.4864726902
      198.0000000000        2.7885210292       -0.3221605156
      199.0000000000        2.5349823596       -0.1895683085
      200.0000000000        2.4018600340       -0.0794722086
      201.0000000000        2.3722246022        0.0192074654
      202.0000000000        2.4390708941        0.1172510593
      203.0000000000        2.6142754573        0.2254559115
      204.0000000000        2.9022535388        0.3550467632
      205.0000000000        3.3352569947        0.5171381632
      206.0000000000        3.9491541737        0.7163233320
      207.0000000000        4.7736848638        0.9305686667
      208.0000000000        5.7854993994        1.0680789421
      209.0000000000        6.8205115185        0.9396325241
      210.0000000000        7.5268202506        0.4125641561
      211.0000000000        7.5924271997       -0.2644030677
      212.0000000000        7.1049810580       -0.6366727111
      213.0000000000        6.4568116116       -0.6067191710
      214.0000000000        5.9549878610       -0.3848417219
      215.0000000000        5.6829655379       -0.1708567718
      216.0000000000        5.5858337146       -0.0345083439
      217.0000000000        5.6041163855        0.0710658877
      218.0000000000        5.7241733823        0.1594801357
      219.0000000000        5.8773503565        0.1111124665
      220.0000000000        5.8670747452       -0.1645972083
      221.0000000000        5.5255859439       -0.5040802034
      222.0000000000        4.9246762810       -0.6565398820
      223.0000000000        4.2854430274       -0.5949870122
      224.0000000000        3.7678485145       -0.4321704049
      225.0000000000        3.4269439801       -0.2498480264
      226.0000000000        3.2655397555       -0.0746026241
      227.0000000000        3.2746091804        0.0910968707
      228.0000000000        3.4425070797        0.2400534445
      229.0000000000        3.7383971953        0.3336468917
      230.0000000000        4.0660340918        0.2919741496
      231.0000000000        4.2607973967        0.0726864031
      232.0000000000        4.1941576131       -0.1953821589
      233.0000000000        3.9200212966       -0.3208226324
      234.0000000000        3.6100953055       -0.2750767801
      235.0000000000        3.3992986793       -0.1376417210
      236.0000000000        3.3452885036        0.0327392038
      237.0000000000        3.4699152173        0.2191083025
      238.0000000000        3.7891405181        0.4220595660
      239.0000000000        4.3165792034        0.6310287802
      240.0000000000        5.0335523681        0.7851309322
      241.0000000000        5.8193523681        0.7368075554
      242.0000000000        6.3867455958        0.3377467138
      243.0000000000        6.4184693124       -0.2781062017
      244.0000000000        5.8953057291       -0.7103437602
      245.0000000000        5.1200474232       -0.7876004926
      246.0000000000        4.3931667113       -0.6451008600
      247.0000000000        3.8495995313       -0.4400940933
      248.0000000000        3.5083442799       -0.2475015312
      249.0000000000        3.3410018181       -0.0954915291
      250.0000000000        3.2983006207       -0.0000719464
      251.0000000000        3.3230684598        0.0436220629
      252.0000000000        3.3821445633        0.0764941478
      253.0000000000        3.4810152596        0.1216214569
      254.0000000000        3.6171173875        0.1421837865
      255.0000000000        3.7471564334        0.1118799218
      256.0000000000        3.8444982846        0.0932506956
      257.0000000000        3.9661234465        0.1687264810
      258.0000000000        4.2164799969        0.3464577357
      259.0000000000        4.6810996169        0.5901149337
      260.0000000000        5.4011645868        0.8450800006
      261.0000000000        6.3368725623        0.9934783127
      262.0000000000        7.2801563315        0.8199691340
      263.0000000000        7.8198253379        0.1929177633
      264.0000000000        7.6149906680       -0.5890850912
      265.0000000000        6.7632364917       -1.0355394318
      266.0000000000        5.6886392983       -1.0582563531
      267.0000000000        4.7165020769       -0.8687989648
      268.0000000000        3.9627522070       -0.6403138380
      269.0000000000        3.4261673780       -0.4391654203
      270.0000000000        3.0720221238       -0.2746799206
      271.0000000000        2.8677561886       -0.1372577575
      272.0000000000        2.7929819222       -0.0134333944
      273.0000000000        2.8407093253        0.1097811822
      274.0000000000        3.0159270268        0.2429242730
      275.0000000000        3.3310179046        0.3887367167
      276.0000000000        3.7913255516        0.5265814854
      277.0000000000        4.3564759041        0.5852411392
      278.0000000000        4.8937797947        0.4487229604
      279.0000000000        5.1794140778        0.0990128839
      280.0000000000        5.0943938497       -0.2429155378
      281.0000000000        4.7732061714       -0.3565097036
      282.0000000000        4.4484713542       -0.2669046881
      283.0000000000        4.2577060980       -0.1158117873
      284.0000000000        4.1966986332       -0.0231110962
      285.0000000000        4.1745554002       -0.0389462282
      286.0000000000        4.1054564703       -0.0950161499
      287.0000000000        4.0112657156       -0.0748304244
      288.0000000000        3.9917987417        0.0511445457
      289.0000000000        4.1369655311        0.2478268422
      290.0000000000        4.5001866010        0.4828116442
      291.0000000000        5.1044417607        0.7215978336
      292.0000000000        5.9166373500        0.8765896861
      293.0000000000        6.7878640771        0.7736816891
      294.0000000000        7.3491929055        0.2915968831
      295.0000000000        7.3193676518       -0.3365514366
      296.0000000000        6.7737262567       -0.6865970722
      297.0000000000        6.0754856211       -0.6582276155
      298.0000000000        5.5270895994       -0.4181892172
      299.0000000000        5.2615162122       -0.1075331279
      300.0000000000        5.3185341700        0.2240135395
      301.0000000000        5.7139649244        0.5682458420
      302.0000000000        6.4511334117        0.8978191600
      303.0000000000        7.4673988043        1.0955645412
      304.0000000000        8.5163679168        0.9164146652
      305.0000000000        9.1126338809        0.1945597757
      306.0000000000        8.8314047191       -0.7354288111
      307.0000000000        7.7749680902       -1.2849194737
      308.0000000000        6.4338695477       -1.3306101529
      309.0000000000        5.1981219045       -1.1200482490
      310.0000000000        4.2075747566       -0.8634131738
      311.0000000000        3.4582237509       -0.6438377111
      312.0000000000        2.9025353851       -0.4757268049
      313.0000000000        2.4922239691       -0.3511829596
      314.0000000000        2.1894949198       -0.2587349864
      315.0000000000        1.9673343495       -0.1886304690
      316.0000000000        1.8310215537       -0.1332486184
      317.0000000000        1.7211167704       -0.0877959817
      318.0000000000        1.6535896295       -0.0478868359
      319.0000000000        1.6246225539       -0.0101471225
