# IR Spectrum
# X-Axis:  Frequency (cm-1)
# Y-Axis:  Epsilon
#                  X                   Y               DY/DX
        0.0000000000        0.0355294863        0.0012295144
        1.0000000000        0.0367961428        0.0013048654
        2.0000000000        0.0381414733        0.0013869881
        3.0000000000        0.0395726444        0.0014766909
        4.0000000000        0.0410976899        0.0015749030
        5.0000000000        0.0427256423        0.0016826966
        6.0000000000        0.0444666884        0.0018013128
        7.0000000000        0.0463323538        0.0019321945
        8.0000000000        0.0483357239        0.0020770253
        9.0000000000        0.0504917081        0.0022377786
       10.0000000000        0.0528173583        0.0024167776
       11.0000000000        0.0553322554        0.0026167703
       12.0000000000        0.0580589788        0.0028410238
       13.0000000000        0.0610236828        0.0030934427
       14.0000000000        0.0642568060        0.0033787196
       15.0000000000        0.0677939524        0.0037025283
       16.0000000000        0.0716769905        0.0040717718
       17.0000000000        0.0759554376        0.0044949056
       18.0000000000        0.0806882145        0.0049823615
       19.0000000000        0.0859458878        0.0055471075
       20.0000000000        0.0918135635        0.0062053972
       21.0000000000        0.0983946508        0.0069777799
       22.0000000000        0.1058158126        0.0078904803
       23.0000000000        0.1142335393        0.0089773010
       24.0000000000        0.1238429805        0.0102822794
       25.0000000000        0.1348899476        0.0118634425
       26.0000000000        0.1476874256        0.0137981766
       27.0000000000        0.1626385748        0.0161909947
       28.0000000000        0.1802691684        0.0191848803
       29.0000000000        0.2012738591        0.0229779451
       30.0000000000        0.2265827396        0.0278478173
       31.0000000000        0.2574573483        0.0341866009
       32.0000000000        0.2956277172        0.0425479268
       33.0000000000        0.3472606142        0.0537472453
       34.0000000000        0.4081195869        0.0686990153
       35.0000000000        0.4863118424        0.0886046802
       36.0000000000        0.5873068915        0.1144208784
       37.0000000000        0.7172587182        0.1465539401
       38.0000000000        0.8827127293        0.1856377273
       39.0000000000        1.0912379396        0.2325433761
       40.0000000000        1.3475828449        0.2777433655
       41.0000000000        1.6337924085        0.2832583297
       42.0000000000        1.8822271761        0.1953388068
       43.0000000000        1.9954895316        0.0250786506
       44.0000000000        1.9433734064       -0.1139051322
       45.0000000000        1.8053067326       -0.1446996003
       46.0000000000        1.6775542750       -0.1058187964
       47.0000000000        1.5905627960       -0.0752478618
       48.0000000000        1.5072279036       -0.1015582528
       49.0000000000        1.3749449368       -0.1635976769
       50.0000000000        1.1894498652       -0.1993643491
       51.0000000000        0.9956720394       -0.1888924515
       52.0000000000        0.8230448059       -0.1545808337
       53.0000000000        0.6871949202       -0.1177293680
       54.0000000000        0.5855468298       -0.0867631977
       55.0000000000        0.5113264912       -0.0627568440
       56.0000000000        0.4581422689       -0.0444177372
       57.0000000000        0.4218638454       -0.0301237634
       58.0000000000        0.3977163267       -0.0185200322
       59.0000000000        0.3842935799       -0.0085136856
       60.0000000000        0.3824092602        0.0008016112
       61.0000000000        0.3878545540        0.0101660634
       62.0000000000        0.4030325081        0.0204080917
       63.0000000000        0.4292711627        0.0324596146
       64.0000000000        0.4689435361        0.0474985075
       65.0000000000        0.5257683176        0.0670499488
       66.0000000000        0.6051606037        0.0929494366
       67.0000000000        0.7143245469        0.1267503963
       68.0000000000        0.8610421645        0.1674256140
       69.0000000000        1.0484287005        0.2052169115
       70.0000000000        1.2614131006        0.2121658224
       71.0000000000        1.4505208902        0.1483519816
       72.0000000000        1.5362776281        0.0171523243
       73.0000000000        1.4904341349       -0.0979907759
       74.0000000000        1.3692267167       -0.1297845646
       75.0000000000        1.2539640365       -0.0929412736
       76.0000000000        1.1921853290       -0.0290122244
       77.0000000000        1.1946412266        0.0310712939
       78.0000000000        1.2435762009        0.0586523825
       79.0000000000        1.2908768335        0.0242319050
       80.0000000000        1.2729371810       -0.0649521836
       81.0000000000        1.1644186906       -0.1446490710
       82.0000000000        1.0054115445       -0.1685848098
       83.0000000000        0.8438302498       -0.1501658030
       84.0000000000        0.7094508797       -0.1180636072
       85.0000000000        0.6069832402       -0.0877459107
       86.0000000000        0.5319000670       -0.0634709968
       87.0000000000        0.4781066991       -0.0449714965
       88.0000000000        0.4404909382       -0.0308744633
       89.0000000000        0.4153409462       -0.0198378024
       90.0000000000        0.4001547994       -0.0107910067
       91.0000000000        0.3933731227       -0.0029068454
       92.0000000000        0.3945417298        0.0044899127
       93.0000000000        0.4036462943        0.0120045263
       94.0000000000        0.4196788605        0.0202374281
       95.0000000000        0.4445991837        0.0299096297
       96.0000000000        0.4802620815        0.0418783883
       97.0000000000        0.5294444834        0.0571068050
       98.0000000000        0.5958040283        0.0762726133
       99.0000000000        0.6841264112        0.0983776660
      100.0000000000        0.7926863986        0.1172208360
      101.0000000000        0.9123559725        0.1172057164
      102.0000000000        1.0144629790        0.0802847537
      103.0000000000        1.0634405698        0.0164628839
      104.0000000000        1.0534193907       -0.0301944599
      105.0000000000        1.0206512580       -0.0352051685
      106.0000000000        0.9960122617       -0.0108876495
      107.0000000000        1.0027133635        0.0253399863
      108.0000000000        1.0480647915        0.0659302308
      109.0000000000        1.1359682974        0.1108126256
      110.0000000000        1.2722722263        0.1635024350
      111.0000000000        1.4673852417        0.2294811052
      112.0000000000        1.7379939995        0.3157712488
      113.0000000000        2.1082841137        0.4300466531
      114.0000000000        2.6089612407        0.5764555054
      115.0000000000        3.2682133167        0.7424804032
      116.0000000000        4.0825966685        0.8721938620
      117.0000000000        4.9627186994        0.8527071932
      118.0000000000        5.7083274044        0.6010261937
      119.0000000000        6.1118979683        0.1919843526
      120.0000000000        6.0833079659       -0.2577726843
      121.0000000000        5.6121566426       -0.6662815138
      122.0000000000        4.8155461323       -0.8849113303
      123.0000000000        3.9232647824       -0.8670404686
      124.0000000000        3.1235987262       -0.7219477223
      125.0000000000        2.4851623680       -0.5571052809
      126.0000000000        2.0009328843       -0.4180538288
      127.0000000000        1.6383353299       -0.3124295078
      128.0000000000        1.3666699974       -0.2349785861
      129.0000000000        1.1614143728       -0.1784671903
      130.0000000000        1.0047939029       -0.1368364292
      131.0000000000        0.8842817780       -0.1056285936
      132.0000000000        0.7911223433       -0.0816946070
      133.0000000000        0.7192137260       -0.0628176595
      134.0000000000        0.6643360152       -0.0474068890
      135.0000000000        0.6236435263       -0.0342731932
      136.0000000000        0.5953486591       -0.0224660960
      137.0000000000        0.5785484663       -0.0111477125
      138.0000000000        0.5731673802        0.0005165772
      139.0000000000        0.5829276128        0.0135032362
      140.0000000000        0.6038689858        0.0288997549
      141.0000000000        0.6420329273        0.0482255312
      142.0000000000        0.7022274809        0.0732723493
      143.0000000000        0.7910362782        0.1056344246
      144.0000000000        0.9157965943        0.1446557255
      145.0000000000        1.0848914006        0.1817816178
      146.0000000000        1.2751280141        0.1906182876
      147.0000000000        1.4425367002        0.1297094512
      148.0000000000        1.5080195012       -0.0071694326
      149.0000000000        1.4286082770       -0.1428951198
      150.0000000000        1.2489756068       -0.2019846582
      151.0000000000        1.0478124768       -0.1925048599
      152.0000000000        0.8727292745       -0.1559846135
      153.0000000000        0.7360692209       -0.1181873515
      154.0000000000        0.6339186876       -0.0874635900
      155.0000000000        0.5585610686       -0.0644253153
      156.0000000000        0.5030166775       -0.0475415345
      157.0000000000        0.4619893679       -0.0351368067
      158.0000000000        0.4316961519       -0.0258855364
      159.0000000000        0.4094879313       -0.0188349478
      160.0000000000        0.3935162776       -0.0133209660
      161.0000000000        0.3824890334       -0.0088823857
      162.0000000000        0.3755019361       -0.0051955243
      163.0000000000        0.3719253062       -0.0020286995
      164.0000000000        0.3713284631        0.0007885829
      165.0000000000        0.3734296189        0.0033864534
      166.0000000000        0.3780630962        0.0058689824
      167.0000000000        0.3851586141        0.0083243316
      168.0000000000        0.3947293402        0.0108323540
      169.0000000000        0.4068667420        0.0134707480
      170.0000000000        0.4232151248        0.0163390635
      171.0000000000        0.4411007789        0.0194906800
      172.0000000000        0.4623317716        0.0230489087
      173.0000000000        0.4899498347        0.0271740568
      174.0000000000        0.5194525716        0.0319629204
      175.0000000000        0.5541758318        0.0376544027
      176.0000000000        0.5951521161        0.0445211468
      177.0000000000        0.6437302376        0.0529285758
      178.0000000000        0.7016867626        0.0633747648
      179.0000000000        0.7713862038        0.0765494170
      180.0000000000        0.8560137418        0.0934219837
      181.0000000000        0.9599166550        0.1153739627
      182.0000000000        1.0891087101        0.1443965549
      183.0000000000        1.2520154313        0.1833788353
      184.0000000000        1.4605597880        0.2364995057
      185.0000000000        1.7316718900        0.3096587482
      186.0000000000        2.0891255910        0.4105923431
      187.0000000000        2.5648579518        0.5473598397
      188.0000000000        3.1965116572        0.7212944050
      189.0000000000        4.0116626875        0.9054943468
      190.0000000000        4.9792335806        1.0010146386
      191.0000000000        5.9196484857        0.8156367420
      192.0000000000        6.4731985811        0.2340380592
      193.0000000000        6.3433413054       -0.4730336863
      194.0000000000        5.6351014973       -0.8726446286
      195.0000000000        4.7266258241       -0.8955088250
      196.0000000000        3.9051704172       -0.7324618458
      197.0000000000        3.2716599515       -0.5361099204
      198.0000000000        2.8241813285       -0.3645170617
      199.0000000000        2.5313760646       -0.2261005378
      200.0000000000        2.3634461759       -0.1130976192
      201.0000000000        2.3003481405       -0.0146107113
      202.0000000000        2.3329510456        0.0800442253
      203.0000000000        2.4666887061        0.1813637693
      204.0000000000        2.7054417616        0.2999530403
      205.0000000000        3.0759690842        0.4465509703
      206.0000000000        3.6100756890        0.6271481186
      207.0000000000        4.3373150319        0.8270458474
      208.0000000000        5.2477011162        0.9740120448
      209.0000000000        6.2129582209        0.9045282166
      210.0000000000        6.9308260276        0.4709857874
      211.0000000000        7.0867596463       -0.1551471281
      212.0000000000        6.7028364651       -0.5471539538
      213.0000000000        6.1242969460       -0.5557262162
      214.0000000000        5.6612391216       -0.3543067172
      215.0000000000        5.4186121666       -0.1402632179
      216.0000000000        5.3532660827       -0.0043439275
      217.0000000000        5.3895009372        0.0698615792
      218.0000000000        5.4750043081        0.0854671311
      219.0000000000        5.5100819180       -0.0468482295
      220.0000000000        5.3291322757       -0.3264441953
      221.0000000000        4.8768290944       -0.5502282201
      222.0000000000        4.2972869086       -0.5763222757
      223.0000000000        3.7725957282       -0.4579709083
      224.0000000000        3.3973037418       -0.2897070091
      225.0000000000        3.1941045403       -0.1174443485
      226.0000000000        3.1605864035        0.0495714075
      227.0000000000        3.2911983554        0.2098297461
      228.0000000000        3.5716792006        0.3427698252
      229.0000000000        3.9462853951        0.3828864381
      230.0000000000        4.2751662670        0.2399436755
      231.0000000000        4.3703419023       -0.0622806516
      232.0000000000        4.1682837143       -0.3166892838
      233.0000000000        3.8055413999       -0.3756209200
      234.0000000000        3.4682607294       -0.2818478262
      235.0000000000        3.2623457368       -0.1246873441
      236.0000000000        3.2245090203        0.0504756462
      237.0000000000        3.3651841771        0.2312899569
      238.0000000000        3.6850603418        0.4047654727
      239.0000000000        4.1561575073        0.5201396205
      240.0000000000        4.6682562830        0.4658668008
      241.0000000000        4.9989069958        0.1552625611
      242.0000000000        4.9379052277       -0.2712344630
      243.0000000000        4.5155252019       -0.5298857212
      244.0000000000        3.9626702227       -0.5418035137
      245.0000000000        3.4771104704       -0.4169187258
      246.0000000000        3.1401396000       -0.2558307692
      247.0000000000        2.9639595134       -0.0981647453
      248.0000000000        2.9403286277        0.0491498508
      249.0000000000        3.0579237490        0.1828500789
      250.0000000000        3.2949469585        0.2822910515
      251.0000000000        3.5959145722        0.3021346759
      252.0000000000        3.8607899042        0.2099463124
      253.0000000000        3.9953588414        0.0596439595
      254.0000000000        4.0040089793       -0.0215564562
      255.0000000000        3.9977588101        0.0292482661
      256.0000000000        4.0890481004        0.1584191916
      257.0000000000        4.3076515974        0.2673063684
      258.0000000000        4.5903305412        0.2799892570
      259.0000000000        4.8443132175        0.2274279978
      260.0000000000        5.0695162269        0.2444403659
      261.0000000000        5.3769814394        0.3867402222
      262.0000000000        5.8501407249        0.5471026020
      263.0000000000        6.4077822737        0.5188657072
      264.0000000000        6.7674368360        0.1425196577
      265.0000000000        6.6256811284       -0.4245230325
      266.0000000000        5.9945210862       -0.7923855993
      267.0000000000        5.1610404520       -0.8274301517
      268.0000000000        4.4026898622       -0.6721548252
      269.0000000000        3.8312672303       -0.4700729269
      270.0000000000        3.4578255667       -0.2805193902
      271.0000000000        3.2630900582       -0.1118370641
      272.0000000000        3.2306175621        0.0463758469
      273.0000000000        3.3574482747        0.2093854171
      274.0000000000        3.6558475041        0.3915228454
      275.0000000000        4.1489315177        0.5980453925
      276.0000000000        4.8522951650        0.8031666883
      277.0000000000        5.7228108854        0.9072087253
      278.0000000000        6.5702675559        0.7240253361
      279.0000000000        7.0385336956        0.1656085095
      280.0000000000        6.8702780180       -0.4752260357
      281.0000000000        6.1982391850       -0.7957413460
      282.0000000000        5.3965822436       -0.7642258788
      283.0000000000        4.7191181831       -0.5823828125
      284.0000000000        4.2254163117       -0.4164914312
      285.0000000000        3.8566278459       -0.3355608322
      286.0000000000        3.5353815519       -0.3096680483
      287.0000000000        3.2435813562       -0.2671723096
      288.0000000000        3.0147876181       -0.1848878402
      289.0000000000        2.8809785087       -0.0807657842
      290.0000000000        2.8568989557        0.0307237692
      291.0000000000        2.9459839187        0.1490912973
      292.0000000000        3.1599485433        0.2821425093
      293.0000000000        3.5186053030        0.4400796673
      294.0000000000        4.0504145331        0.6282882001
      295.0000000000        4.7803668717        0.8302047064
      296.0000000000        5.6923072242        0.9736384782
      297.0000000000        6.6605390282        0.9170404575
      298.0000000000        7.4311567781        0.5871466177
      299.0000000000        7.8310459017        0.2131954971
      300.0000000000        7.9719575117        0.1310088241
      301.0000000000        8.2006006032        0.3622734954
      302.0000000000        8.7178292262        0.6546802850
      303.0000000000        9.4137429922        0.6596275181
      304.0000000000        9.8485636146        0.1170131753
      305.0000000000        9.5329200504       -0.7525661133
      306.0000000000        8.4412743062       -1.3460099557
      307.0000000000        7.0152366646       -1.4332108244
      308.0000000000        5.6715902159       -1.2264328667
      309.0000000000        4.5819558071       -0.9536228953
      310.0000000000        3.7522689124       -0.7145085037
      311.0000000000        3.1345347934       -0.5298166959
      312.0000000000        2.6767300013       -0.3927246833
      313.0000000000        2.3372500332       -0.2912066004
      314.0000000000        2.0860044277       -0.2147162512
      315.0000000000        1.9021542709       -0.1552879794
      316.0000000000        1.7716945298       -0.1071106524
      317.0000000000        1.6856337717       -0.0658603976
      318.0000000000        1.6621830435       -0.0278183021
      319.0000000000        1.6529141658        0.0094431268
