# IR Spectrum
# X-Axis:  Frequency (cm-1)
# Y-Axis:  Epsilon
#                  X                   Y               DY/DX
        0.0000000000        0.0146848905        0.0003704336
        1.0000000000        0.0150659385        0.0003920424
        2.0000000000        0.0183356487        0.0004520870
        3.0000000000        0.0188013123        0.0004797715
        4.0000000000        0.0192963516        0.0005109405
        5.0000000000        0.0198245826        0.0005462836
        6.0000000000        0.0203905981        0.0005866728
        7.0000000000        0.0209999781        0.0006332222
        8.0000000000        0.0216595709        0.0006873712
        9.0000000000        0.0223778743        0.0007510016
       10.0000000000        0.0231655557        0.0008266044
       11.0000000000        0.0240361745        0.0009175208
       12.0000000000        0.0250071975        0.0010282945
       13.0000000000        0.0261014444        0.0011651926
       14.0000000000        0.0273491732        0.0013369818
       15.0000000000        0.0287911224        0.0015560906
       16.0000000000        0.0304829801        0.0018403354
       17.0000000000        0.0325019469        0.0022154126
       18.0000000000        0.0349562146        0.0027182141
       19.0000000000        0.0442086470        0.0034779630
       20.0000000000        0.0481275561        0.0044066682
       21.0000000000        0.0531257089        0.0056446732
       22.0000000000        0.0595203094        0.0071847874
       23.0000000000        0.0675107745        0.0087499946
       24.0000000000        0.0767369427        0.0094366516
       25.0000000000        0.0855741359        0.0077235039
       26.0000000000        0.0912051432        0.0032074234
       27.0000000000        0.0934123596       -0.0013655136
       28.0000000000        0.0909454966       -0.0029836726
       29.0000000000        0.0884347856       -0.0016796901
       30.0000000000        0.0880199317        0.0009442701
       31.0000000000        0.0903210071        0.0035734245
       32.0000000000        0.0948642006        0.0053136873
       33.0000000000        0.1005577270        0.0059256181
       34.0000000000        0.1065820759        0.0061136985
       35.0000000000        0.1126704380        0.0058719515
       36.0000000000        0.1175480633        0.0033336529
       37.0000000000        0.1182948953       -0.0021599148
       38.0000000000        0.1133343628       -0.0073458135
       39.0000000000        0.1047939454       -0.0091167395
       40.0000000000        0.0960689004       -0.0080178104
       41.0000000000        0.0890926493       -0.0058810981
       42.0000000000        0.0842875671       -0.0037760408
       43.0000000000        0.0814224737       -0.0020155172
       44.0000000000        0.0801448569       -0.0005877024
       45.0000000000        0.0801693176        0.0006068795
       46.0000000000        0.0813165652        0.0016749528
       47.0000000000        0.0835097670        0.0027145004
       48.0000000000        0.0897480526        0.0038564732
       49.0000000000        0.0942209720        0.0051253332
       50.0000000000        0.1000892657        0.0066659489
       51.0000000000        0.1076794035        0.0085843450
       52.0000000000        0.1173985607        0.0109164055
       53.0000000000        0.1297504634        0.0134292795
       54.0000000000        0.1442094326        0.0152620905
       55.0000000000        0.1595682046        0.0150127927
       56.0000000000        0.1734598062        0.0125731420
       57.0000000000        0.1849918694        0.0109648064
       58.0000000000        0.1966965278        0.0131250030
       59.0000000000        0.2139072343        0.0182843624
       60.0000000000        0.2346571670        0.0226700321
       61.0000000000        0.2571736916        0.0208685890
       62.0000000000        0.2730631204        0.0094375549
       63.0000000000        0.2746802669       -0.0058709054
       64.0000000000        0.2636969075       -0.0144254260
       65.0000000000        0.2489866727       -0.0137485927
       66.0000000000        0.2378361252       -0.0081081729
       67.0000000000        0.2331784837       -0.0011577566
       68.0000000000        0.2355000773        0.0057725681
       69.0000000000        0.2447078673        0.0126706663
       70.0000000000        0.2611993116        0.0200427107
       71.0000000000        0.2853923171        0.0286142304
       72.0000000000        0.3191345704        0.0393143937
       73.0000000000        0.3651169368        0.0533100862
       74.0000000000        0.4273100115        0.0719670240
       75.0000000000        0.5109868460        0.0963738539
       76.0000000000        0.6217109887        0.1255284038
       77.0000000000        0.7637628858        0.1515805148
       78.0000000000        0.9192463005        0.1525458663
       79.0000000000        1.0499953328        0.0980558080
       80.0000000000        1.0973396192       -0.0078370237
       81.0000000000        1.0386455259       -0.1014898268
       82.0000000000        0.9153757239       -0.1346624174
       83.0000000000        0.7851988990       -0.1205883869
       84.0000000000        0.6796692455       -0.0895100159
       85.0000000000        0.6061776487       -0.0580319015
       86.0000000000        0.5621577236       -0.0307455113
       87.0000000000        0.5472187538       -0.0071280282
       88.0000000000        0.5510513527        0.0146883343
       89.0000000000        0.5767799420        0.0370640743
       90.0000000000        0.6262004073        0.0625132298
       91.0000000000        0.7037657975        0.0938499625
       92.0000000000        0.8168665592        0.1340617667
       93.0000000000        0.9755452129        0.1850862523
       94.0000000000        1.1896382426        0.2433939320
       95.0000000000        1.4585048176        0.2891291570
       96.0000000000        1.7475161195        0.2730689926
       97.0000000000        1.9644133467        0.1394899943
       98.0000000000        1.9966021415       -0.0790644525
       99.0000000000        1.8240873518       -0.2472333489
      100.0000000000        1.5446882279       -0.2938567577
      101.0000000000        1.2636306410       -0.2604236943
      102.0000000000        1.0311874811       -0.2037734250
      103.0000000000        0.8544003627       -0.1515003557
      104.0000000000        0.7243225425       -0.1105935196
      105.0000000000        0.6296656025       -0.0802870228
      106.0000000000        0.5610535339       -0.0580763818
      107.0000000000        0.5115971851       -0.0416327231
      108.0000000000        0.4764610201       -0.0291873131
      109.0000000000        0.4523149076       -0.0194771106
      110.0000000000        0.4368953079       -0.0116095943
      111.0000000000        0.4286973300       -0.0049424803
      112.0000000000        0.4267720004        0.0010065114
      113.0000000000        0.4306007914        0.0066253739
      114.0000000000        0.4400273116        0.0122578717
      115.0000000000        0.4552346645        0.0182460850
      116.0000000000        0.4767646327        0.0249726838
      117.0000000000        0.5055819305        0.0329099871
      118.0000000000        0.5431939526        0.0426831147
      119.0000000000        0.5918434628        0.0551534190
      120.0000000000        0.6547945737        0.0715194872
      121.0000000000        0.7367149158        0.0933954865
      122.0000000000        0.8440646194        0.1226980500
      123.0000000000        0.9850750566        0.1607919828
      124.0000000000        1.1679533164        0.2054501579
      125.0000000000        1.3939498808        0.2432664348
      126.0000000000        1.6409459023        0.2399236479
      127.0000000000        1.8456451769        0.1542334111
      128.0000000000        1.9270834860        0.0051031705
      129.0000000000        1.8676642926       -0.1104784213
      130.0000000000        1.7374486579       -0.1354555088
      131.0000000000        1.6182386418       -0.0961432575
      132.0000000000        1.5528399873       -0.0329213621
      133.0000000000        1.5538898455        0.0353227853
      134.0000000000        1.6242646100        0.1061213255
      135.0000000000        1.7685366744        0.1842135817
      136.0000000000        1.9975869937        0.2769998681
      137.0000000000        2.3299339059        0.3918255149
      138.0000000000        2.7893365790        0.5303128263
      139.0000000000        3.3925328486        0.6730828203
      140.0000000000        4.1152898784        0.7531572713
      141.0000000000        4.8403470046        0.6603384598
      142.0000000000        5.3687586857        0.3755937529
      143.0000000000        5.5979610890        0.1011341273
      144.0000000000        5.6394542830        0.0117421053
      145.0000000000        5.6475434488       -0.0031756227
      146.0000000000        5.5840600250       -0.1568583785
      147.0000000000        5.2845860309       -0.4484273806
      148.0000000000        4.7191283501       -0.6513065552
      149.0000000000        4.0528563893       -0.6505850066
      150.0000000000        3.4600040124       -0.5235365887
      151.0000000000        3.0153706098       -0.3656052807
      152.0000000000        2.7248120332       -0.2184522690
      153.0000000000        2.5728540197       -0.0877344955
      154.0000000000        2.5465184577        0.0346094045
      155.0000000000        2.6431929735        0.1603019911
      156.0000000000        2.8750022834        0.3005884254
      157.0000000000        3.2540234226        0.4603409745
      158.0000000000        3.7970529262        0.6223880745
      159.0000000000        4.4783371005        0.7146561991
      160.0000000000        5.1567105297        0.5933532606
      161.0000000000        5.5607373917        0.1695104090
      162.0000000000        5.4606052232       -0.3550211922
      163.0000000000        4.9314917087       -0.6495349760
      164.0000000000        4.2597758564       -0.6562992143
      165.0000000000        3.6664873337       -0.5183185887
      166.0000000000        3.2319467531       -0.3512827436
      167.0000000000        2.9587420465       -0.1985774938
      168.0000000000        2.8283152793       -0.0649227400
      169.0000000000        2.8253817341        0.0582827269
      170.0000000000        2.9454701965        0.1832992013
      171.0000000000        3.1971564039        0.3239036305
      172.0000000000        3.6036164914        0.4955807607
      173.0000000000        4.2042506870        0.7149529787
      174.0000000000        5.0536079121        0.9938224949
      175.0000000000        6.2075256518        1.3169822266
      176.0000000000        7.6714488385        1.5860591227
      177.0000000000        9.2780151649        1.5460692326
      178.0000000000       10.5516453636        0.8856665516
      179.0000000000       10.8772412454       -0.2641905619
      180.0000000000       10.1057394910       -1.1801988752
      181.0000000000        8.7551685978       -1.4261507563
      182.0000000000        7.4178067831       -1.2001126809
      183.0000000000        6.4026980028       -0.8251896542
      184.0000000000        5.7521801643       -0.4936096575
      185.0000000000        5.3631847943       -0.3177829399
      186.0000000000        5.0441088868       -0.3539719643
      187.0000000000        4.6128843335       -0.5126396358
      188.0000000000        4.0419312326       -0.6075003187
      189.0000000000        3.4422908509       -0.5737505161
      190.0000000000        2.9172126556       -0.4711134555
      191.0000000000        2.5023968451       -0.3601048605
      192.0000000000        2.1914352988       -0.2651257558
      193.0000000000        1.9656676207       -0.1893814547
      194.0000000000        1.8075163922       -0.1290486996
      195.0000000000        1.7040808143       -0.0791705155
      196.0000000000        1.6471939683       -0.0352561309
      197.0000000000        1.6328620924        0.0066375057
      198.0000000000        1.6610082354        0.0502641839
      199.0000000000        1.7353081467        0.0996709461
      200.0000000000        1.8638801073        0.1597105181
      201.0000000000        2.0602885645        0.2364719709
      202.0000000000        2.3454074422        0.3371492481
      203.0000000000        2.7452258693        0.4676490618
      204.0000000000        3.2895127118        0.6235028259
      205.0000000000        3.9884666163        0.7655244402
      206.0000000000        4.7798353744        0.7828419274
      207.0000000000        5.4585476293        0.5188989669
      208.0000000000        5.7245115250       -0.0107235039
      209.0000000000        5.4579989479       -0.4824907841
      210.0000000000        4.8668903082       -0.6470081873
      211.0000000000        4.2432211964       -0.5757725557
      212.0000000000        3.7406074747       -0.4249043292
      213.0000000000        3.3965146452       -0.2626304905
      214.0000000000        3.2170381361       -0.0954746020
      215.0000000000        3.2056931417        0.0713811779
      216.0000000000        3.3512570343        0.2113059437
      217.0000000000        3.5984908079        0.2606722164
      218.0000000000        3.8137818958        0.1371602234
      219.0000000000        3.8202059068       -0.1367747558
      220.0000000000        3.5534228200       -0.3737740236
      221.0000000000        3.1312466132       -0.4421500092
      222.0000000000        2.7118725228       -0.3831477068
      223.0000000000        2.3788801544       -0.2804048876
      224.0000000000        2.1534305559       -0.1780421927
      225.0000000000        2.0216271705       -0.0876251015
      226.0000000000        1.9744844583       -0.0083033785
      227.0000000000        2.0017942180        0.0611503893
      228.0000000000        2.0924041146        0.1174270416
      229.0000000000        2.2313856225        0.1586476503
      230.0000000000        2.4101889196        0.2020193237
      231.0000000000        2.6469813650        0.2792584349
      232.0000000000        2.9846803373        0.4033908922
      233.0000000000        3.4638919716        0.5567548660
      234.0000000000        4.0898509259        0.6827889398
      235.0000000000        4.7813565120        0.6633982838
      236.0000000000        5.3254631606        0.3783581120
      237.0000000000        5.4777986473       -0.0774034067
      238.0000000000        5.2211552344       -0.3894355001
      239.0000000000        4.7997448229       -0.4085353630
      240.0000000000        4.4694744177       -0.2294584180
      241.0000000000        4.3663785331        0.0305313368
      242.0000000000        4.5387848647        0.3160146537
      243.0000000000        4.9958646286        0.5922308961
      244.0000000000        5.6935655644        0.7756413249
      245.0000000000        6.4571869504        0.6888535494
      246.0000000000        6.9289416718        0.1890265788
      247.0000000000        6.7652579987       -0.5095371458
      248.0000000000        5.9995435528       -0.9537983965
      249.0000000000        4.9906181691       -1.0105245723
      250.0000000000        4.0485586267       -0.8552819992
      251.0000000000        3.2940823856       -0.6542989883
      252.0000000000        2.7316526922       -0.4764547824
      253.0000000000        2.3290778806       -0.3343521952
      254.0000000000        2.0531528617       -0.2215804323
      255.0000000000        1.8792092793       -0.1290812426
      256.0000000000        1.7898592341       -0.0523405234
      257.0000000000        1.7672674139        0.0020084276
      258.0000000000        1.7778379005        0.0115407584
      259.0000000000        1.7670223693       -0.0435280891
      260.0000000000        1.6787975086       -0.1328338828
      261.0000000000        1.5129224854       -0.1895085010
      262.0000000000        1.3185455196       -0.1916120569
      263.0000000000        1.1396520768       -0.1636344246
      264.0000000000        0.9930226799       -0.1298857504
      265.0000000000        0.8783007572       -0.1006126241
      266.0000000000        0.7896283720       -0.0777665349
      267.0000000000        0.7209099594       -0.0604830925
      268.0000000000        0.6672631720       -0.0474049133
      269.0000000000        0.6250910297       -0.0373644046
      270.0000000000        0.5970696374       -0.0294252897
      271.0000000000        0.5709166501       -0.0230973213
      272.0000000000        0.5505070016       -0.0178774531
      273.0000000000        0.5348976277       -0.0134527184
      274.0000000000        0.5234131178       -0.0095951936
      275.0000000000        0.5155755249       -0.0061340585
      276.0000000000        0.5110574235       -0.0029364626
      277.0000000000        0.5096509822        0.0001057877
      278.0000000000        0.5112483456        0.0030858253
      279.0000000000        0.5158303800        0.0060890514
      280.0000000000        0.5234620524        0.0091992211
      281.0000000000        0.5342936051        0.0125040627
      282.0000000000        0.5485673948        0.0161010986
      283.0000000000        0.5666309319        0.0201043412
      284.0000000000        0.5889573740        0.0246526552
      285.0000000000        0.6161756359        0.0299208317
      286.0000000000        0.6491135233        0.0361348571
      287.0000000000        0.6888591080        0.0435935735
      288.0000000000        0.7360265673        0.0527103010
      289.0000000000        0.7941790135        0.0640178466
      290.0000000000        0.8650500476        0.0782992901
      291.0000000000        0.9521285896        0.0966492821
      292.0000000000        1.0602204223        0.1206376156
      293.0000000000        1.1960279660        0.1525314041
      294.0000000000        1.3689914178        0.1955943828
      295.0000000000        1.5924504552        0.2544082660
      296.0000000000        1.8850353483        0.3349223567
      297.0000000000        2.2778243930        0.4432540813
      298.0000000000        2.7873113938        0.5796709034
      299.0000000000        3.4397927589        0.7221149008
      300.0000000000        4.2086792879        0.7932017730
      301.0000000000        4.9611323180        0.6517443578
      302.0000000000        5.4224278230        0.2340669753
      303.0000000000        5.4088105604       -0.2349223519
      304.0000000000        5.0378392063       -0.4542983075
      305.0000000000        4.5910524656       -0.4069723173
      306.0000000000        4.2591528469       -0.2520002496
      307.0000000000        4.0777644779       -0.1152027850
      308.0000000000        4.0104336199       -0.0237512886
      309.0000000000        4.0344773736        0.0799123093
      310.0000000000        4.1925199522        0.2480540141
      311.0000000000        4.5507650375        0.4756312621
      312.0000000000        5.1489904956        0.7171772203
      313.0000000000        5.9581896609        0.8752794618
      314.0000000000        6.8194541075        0.7957613885
      315.0000000000        7.4490628164        0.4269851519
      316.0000000000        7.6572135916        0.0098314812
      317.0000000000        7.5356332334       -0.2219528375
      318.0000000000        7.2394686355       -0.3763767122
      319.0000000000        6.7543599012       -0.6053509537
