# IR Spectrum
# X-Axis:  Frequency (cm-1)
# Y-Axis:  Epsilon
#                  X                   Y               DY/DX
        0.0000000000        0.0176660263        0.0005202724
        1.0000000000        0.0182036902        0.0005557105
        2.0000000000        0.0199868337        0.0006105591
        3.0000000000        0.0206194264        0.0006555280
        4.0000000000        0.0212998517        0.0007063899
        5.0000000000        0.0220345364        0.0007642511
        6.0000000000        0.0228311411        0.0008304853
        7.0000000000        0.0236988665        0.0009068129
        8.0000000000        0.0246488494        0.0009954076
        9.0000000000        0.0256946863        0.0010990427
       10.0000000000        0.0268531279        0.0012212925
       11.0000000000        0.0281450124        0.0013668138
       12.0000000000        0.0295965362        0.0015417445
       13.0000000000        0.0312410027        0.0017542737
       14.0000000000        0.0331212612        0.0020154700
       15.0000000000        0.0352931547        0.0023404954
       16.0000000000        0.0378304539        0.0027504076
       17.0000000000        0.0408320108        0.0032748562
       18.0000000000        0.0495285801        0.0040200591
       19.0000000000        0.0539774297        0.0049202967
       20.0000000000        0.0594707519        0.0061265557
       21.0000000000        0.0663743029        0.0077658058
       22.0000000000        0.0752051046        0.0100150584
       23.0000000000        0.0866825609        0.0130988661
       24.0000000000        0.1017529100        0.0172255131
       25.0000000000        0.1214686818        0.0223270179
       26.0000000000        0.1463998431        0.0273290712
       27.0000000000        0.1750108727        0.0288849950
       28.0000000000        0.2011751397        0.0215805424
       29.0000000000        0.2147115213        0.0043676114
       30.0000000000        0.2099125878       -0.0128245504
       31.0000000000        0.1926376888       -0.0197638084
       32.0000000000        0.1736252134       -0.0171185920
       33.0000000000        0.1597848635       -0.0102268152
       34.0000000000        0.1534092828       -0.0025535435
       35.0000000000        0.1544320406        0.0043925773
       36.0000000000        0.1616148299        0.0096074119
       37.0000000000        0.1728689457        0.0125498558
       38.0000000000        0.1862247801        0.0140012184
       39.0000000000        0.2003649401        0.0137598452
       40.0000000000        0.2118484134        0.0078836735
       41.0000000000        0.2135306031       -0.0053944067
       42.0000000000        0.2032079372       -0.0186260236
       43.0000000000        0.1811887074       -0.0239007491
       44.0000000000        0.1578418755       -0.0219745429
       45.0000000000        0.1381359693       -0.0172788263
       46.0000000000        0.1232683655       -0.0125656760
       47.0000000000        0.1127132707       -0.0087011903
       48.0000000000        0.1055719464       -0.0057126600
       49.0000000000        0.1010638158       -0.0033965683
       50.0000000000        0.0986282761       -0.0015333614
       51.0000000000        0.0979084953        0.0000629863
       52.0000000000        0.0987171453        0.0015474613
       53.0000000000        0.1016439254        0.0030654947
       54.0000000000        0.1055236642        0.0047296011
       55.0000000000        0.1111895023        0.0066496396
       56.0000000000        0.1189076650        0.0088126301
       57.0000000000        0.1287783694        0.0108395163
       58.0000000000        0.1401685739        0.0115830035
       59.0000000000        0.1522580309        0.0093551255
       60.0000000000        0.1591491742        0.0041396747
       61.0000000000        0.1607032500       -0.0006018397
       62.0000000000        0.1591359325       -0.0019195671
       63.0000000000        0.1578394977       -0.0003405441
       64.0000000000        0.1588524820        0.0024645222
       65.0000000000        0.1628582326        0.0055631969
       66.0000000000        0.1700037442        0.0087467167
       67.0000000000        0.1804214977        0.0121437344
       68.0000000000        0.1944500811        0.0160199164
       69.0000000000        0.2152683750        0.0207549369
       70.0000000000        0.2388777645        0.0267117682
       71.0000000000        0.2692664260        0.0343881542
       72.0000000000        0.3083331406        0.0440760675
       73.0000000000        0.3579166885        0.0551784448
       74.0000000000        0.4181913766        0.0646410384
       75.0000000000        0.4844368825        0.0658226306
       76.0000000000        0.5452782240        0.0538884046
       77.0000000000        0.5908429900        0.0382646716
       78.0000000000        0.6269398158        0.0374717876
       79.0000000000        0.6751660694        0.0577990267
       80.0000000000        0.7499256664        0.0937344159
       81.0000000000        0.8655164372        0.1382175260
       82.0000000000        1.0256803786        0.1801395273
       83.0000000000        1.2165409163        0.1936454729
       84.0000000000        1.3902944426        0.1402142590
       85.0000000000        1.4727644307        0.0175741652
       86.0000000000        1.4303134485       -0.0984721751
       87.0000000000        1.3048515778       -0.1384617531
       88.0000000000        1.1760792162       -0.1111490603
       89.0000000000        1.0923823563       -0.0536194707
       90.0000000000        1.0716257114        0.0127874836
       91.0000000000        1.1187526090        0.0816336708
       92.0000000000        1.2342195262        0.1480208811
       93.0000000000        1.4082191612        0.1937520836
       94.0000000000        1.6008947239        0.1767765699
       95.0000000000        1.7272143846        0.0593300574
       96.0000000000        1.7003103783       -0.1127872792
       97.0000000000        1.5216581645       -0.2282014078
       98.0000000000        1.2768299019       -0.2478545987
       99.0000000000        1.0440926070       -0.2127544102
      100.0000000000        0.8552058658       -0.1650880984
      101.0000000000        0.7118516812       -0.1231549235
      102.0000000000        0.6056493825       -0.0908182513
      103.0000000000        0.5273910868       -0.0669323769
      104.0000000000        0.4696709728       -0.0493995083
      105.0000000000        0.4270919850       -0.0363832837
      106.0000000000        0.3958597952       -0.0265142317
      107.0000000000        0.3733414876       -0.0188207634
      108.0000000000        0.3577233023       -0.0126185619
      109.0000000000        0.3477720285       -0.0074174852
      110.0000000000        0.3426768794       -0.0028532869
      111.0000000000        0.3419493208        0.0013611694
      112.0000000000        0.3460014010        0.0054799898
      113.0000000000        0.3535814450        0.0097218500
      114.0000000000        0.3655716369        0.0143448238
      115.0000000000        0.3824959929        0.0196452525
      116.0000000000        0.4052133362        0.0260037222
      117.0000000000        0.4350260847        0.0339369657
      118.0000000000        0.4738503601        0.0441694558
      119.0000000000        0.5244684726        0.0577256739
      120.0000000000        0.5908763672        0.0760196093
      121.0000000000        0.6786797070        0.1008296976
      122.0000000000        0.7952672666        0.1337730844
      123.0000000000        0.9487985872        0.1741863723
      124.0000000000        1.1433877394        0.2132105260
      125.0000000000        1.3659486542        0.2236398767
      126.0000000000        1.5662885099        0.1619619311
      127.0000000000        1.6620240616        0.0205210962
      128.0000000000        1.6073663281       -0.1207952446
      129.0000000000        1.4484907052       -0.1817231760
      130.0000000000        1.2719909890       -0.1694107512
      131.0000000000        1.1226269691       -0.1273301651
      132.0000000000        1.0180118852       -0.0825682897
      133.0000000000        0.9554196261       -0.0437647816
      134.0000000000        0.9283832393       -0.0111907645
      135.0000000000        0.9316956354        0.0173645677
      136.0000000000        0.9626537240        0.0445427525
      137.0000000000        1.0212068176        0.0730023712
      138.0000000000        1.1100151194        0.1055451777
      139.0000000000        1.2347130956        0.1453526837
      140.0000000000        1.4043453919        0.1960310743
      141.0000000000        1.6315056311        0.2607964340
      142.0000000000        1.9305615125        0.3390263106
      143.0000000000        2.3097606517        0.4168866168
      144.0000000000        2.7507275893        0.4529501804
      145.0000000000        3.1813722826        0.3883444882
      146.0000000000        3.4972121905        0.2327447200
      147.0000000000        3.6635373791        0.1201423223
      148.0000000000        3.7901447282        0.1602182036
      149.0000000000        4.0298207392        0.3366897112
      150.0000000000        4.4879392886        0.5865383565
      151.0000000000        5.2042087903        0.8383069527
      152.0000000000        6.1228178467        0.9612046211
      153.0000000000        7.0147811853        0.7462814565
      154.0000000000        7.4755192961        0.1239346321
      155.0000000000        7.2456562084       -0.5499392069
      156.0000000000        6.5077229141       -0.8498465438
      157.0000000000        5.6752030644       -0.7690630447
      158.0000000000        5.0230888064       -0.5250604166
      159.0000000000        4.6207371841       -0.2920364940
      160.0000000000        4.3979405053       -0.1805974637
      161.0000000000        4.2023742759       -0.2353943707
      162.0000000000        3.9008878644       -0.3662419187
      163.0000000000        3.4960351455       -0.4238700636
      164.0000000000        3.0920322223       -0.3739445198
      165.0000000000        2.7677348066       -0.2704786535
      166.0000000000        2.5536750678       -0.1581108361
      167.0000000000        2.4494521265       -0.0514042517
      168.0000000000        2.4496132082        0.0517284552
      169.0000000000        2.5545242802        0.1597887033
      170.0000000000        2.7745645709        0.2840346945
      171.0000000000        3.1323447958        0.4375538536
      172.0000000000        3.6638370552        0.6333441744
      173.0000000000        4.4153734130        0.8756439584
      174.0000000000        5.4215225584        1.1326173738
      175.0000000000        6.6454249449        1.2788056751
      176.0000000000        7.8572144471        1.0600200740
      177.0000000000        8.5789680657        0.3020525438
      178.0000000000        8.3884253908       -0.6622286615
      179.0000000000        7.3911959927       -1.2378241198
      180.0000000000        6.0888904075       -1.2984574282
      181.0000000000        4.8853539500       -1.0952979921
      182.0000000000        3.9173288516       -0.8428039545
      183.0000000000        3.1870488436       -0.6262014438
      184.0000000000        2.6476857277       -0.4606761287
      185.0000000000        2.2511998473       -0.3385650022
      186.0000000000        1.9599086036       -0.2484666663
      187.0000000000        1.7468625602       -0.1806649072
      188.0000000000        1.5935963052       -0.1278759047
      189.0000000000        1.4878984277       -0.0847667992
      190.0000000000        1.4220876764       -0.0473042098
      191.0000000000        1.3924089180       -0.0121892900
      192.0000000000        1.3979414877        0.0236287893
      193.0000000000        1.4409701286        0.0633773452
      194.0000000000        1.5272648109        0.1108621569
      195.0000000000        1.6668194313        0.1707474734
      196.0000000000        1.8746480374        0.2482581670
      197.0000000000        2.1704399350        0.3467915760
      198.0000000000        2.5732622241        0.4595114704
      199.0000000000        3.0823278694        0.5488457750
      200.0000000000        3.6326836400        0.5221779131
      201.0000000000        4.0514441999        0.2758167432
      202.0000000000        4.1292528863       -0.1267246586
      203.0000000000        3.8338884798       -0.4306325271
      204.0000000000        3.3488245368       -0.5038453240
      205.0000000000        2.8772372135       -0.4240242736
      206.0000000000        2.5163017481       -0.2958267918
      207.0000000000        2.2849795104       -0.1686113302
      208.0000000000        2.1748761796       -0.0536615913
      209.0000000000        2.1737484940        0.0493672443
      210.0000000000        2.2681046958        0.1352716564
      211.0000000000        2.4316409811        0.1828873119
      212.0000000000        2.6125366326        0.1682905726
      213.0000000000        2.7552344336        0.1171509735
      214.0000000000        2.8610132557        0.1063906751
      215.0000000000        2.9916053554        0.1630977014
      216.0000000000        3.1898494658        0.2263956114
      217.0000000000        3.4131927171        0.1975932127
      218.0000000000        3.5375524912        0.0325412095
      219.0000000000        3.4679342497       -0.1616597130
      220.0000000000        3.2559146674       -0.2366841629
      221.0000000000        3.0401381083       -0.1774445680
      222.0000000000        2.9244439552       -0.0468400749
      223.0000000000        2.9554220212        0.1117428954
      224.0000000000        3.1564791585        0.2846506601
      225.0000000000        3.5301980745        0.4615489109
      226.0000000000        4.0677318007        0.6005063833
      227.0000000000        4.6836024090        0.5952613602
      228.0000000000        5.1683562467        0.3275136678
      229.0000000000        5.2745498532       -0.1222369070
      230.0000000000        4.9667606845       -0.4503045163
      231.0000000000        4.4697396379       -0.5006654536
      232.0000000000        4.0282672000       -0.3625322666
      233.0000000000        3.7670217973       -0.1547878011
      234.0000000000        3.7230499061        0.0672381360
      235.0000000000        3.8998561353        0.2839170821
      236.0000000000        4.2790805280        0.4632656486
      237.0000000000        4.7865294436        0.5220033827
      238.0000000000        5.2467704166        0.3577321041
      239.0000000000        5.4429635062        0.0258882525
      240.0000000000        5.3326213633       -0.2087082630
      241.0000000000        5.1137677362       -0.1881296884
      242.0000000000        5.0150441512        0.0066430387
      243.0000000000        5.1311240808        0.2133520501
      244.0000000000        5.3875705730        0.2579354781
      245.0000000000        5.5456145265        0.0093342427
      246.0000000000        5.3400720348       -0.4260102289
      247.0000000000        4.7389482986       -0.7337659690
      248.0000000000        3.9624285658       -0.7809706340
      249.0000000000        3.2289234689       -0.6719371280
      250.0000000000        2.6298108185       -0.5265582355
      251.0000000000        2.1695431444       -0.3986120903
      252.0000000000        1.8227714854       -0.2996809652
      253.0000000000        1.5616132725       -0.2263874256
      254.0000000000        1.3635561084       -0.1724505958
      255.0000000000        1.2121185206       -0.1323431587
      256.0000000000        1.0947406198       -0.1019123056
      257.0000000000        1.0051348087       -0.0782247626
      258.0000000000        0.9367543642       -0.0591660985
      259.0000000000        0.8857746658       -0.0432029061
      260.0000000000        0.8497115424       -0.0291570843
      261.0000000000        0.8271501617       -0.0160443118
      262.0000000000        0.8235176310       -0.0028689228
      263.0000000000        0.8275585788        0.0112008341
      264.0000000000        0.8466215571        0.0273863380
      265.0000000000        0.8835018778        0.0470917570
      266.0000000000        0.9425112999        0.0719065331
      267.0000000000        1.0294211448        0.1029617514
      268.0000000000        1.1500543587        0.1386064412
      269.0000000000        1.3049428004        0.1685887681
      270.0000000000        1.4767008266        0.1665599818
      271.0000000000        1.6162667046        0.1007543147
      272.0000000000        1.6607800815       -0.0146078922
      273.0000000000        1.5957953925       -0.1051790011
      274.0000000000        1.4741665455       -0.1271115838
      275.0000000000        1.3576720918       -0.1008848375
      276.0000000000        1.2776813511       -0.0581400504
      277.0000000000        1.2416270292       -0.0142863190
      278.0000000000        1.2483815122        0.0275377566
      279.0000000000        1.2966675254        0.0693084383
      280.0000000000        1.3882382704        0.1148293250
      281.0000000000        1.5291703245        0.1689210456
      282.0000000000        1.7309151022        0.2375657675
      283.0000000000        2.0115898911        0.3281019837
      284.0000000000        2.4026854522        0.4483347087
      285.0000000000        2.9248967356        0.6010379156
      286.0000000000        3.6100199813        0.7676298374
      287.0000000000        4.4403470141        0.8714050824
      288.0000000000        5.2834837939        0.7505379265
      289.0000000000        5.8256693698        0.2785053938
      290.0000000000        5.7844406180       -0.3522086537
      291.0000000000        5.2041709991       -0.7473324369
      292.0000000000        4.4074901195       -0.7989729558
      293.0000000000        3.6677436982       -0.6643662679
      294.0000000000        3.0914845378       -0.4883829934
      295.0000000000        2.6844850571       -0.3303294249
      296.0000000000        2.4212299699       -0.2005801986
      297.0000000000        2.2760369716       -0.0926027780
      298.0000000000        2.2321990974        0.0038910915
      299.0000000000        2.2834478781        0.0992482874
      300.0000000000        2.4335289346        0.2030415930
      301.0000000000        2.6948047822        0.3223973434
      302.0000000000        3.0831269516        0.4553326253
      303.0000000000        3.6010879244        0.5733191590
      304.0000000000        4.1992589087        0.5985035740
      305.0000000000        4.7340306176        0.4364568367
      306.0000000000        5.0216183374        0.1347831445
      307.0000000000        5.0356600035       -0.0715617768
      308.0000000000        4.9600024177       -0.0417363473
      309.0000000000        5.0083713754        0.1551489909
      310.0000000000        5.2803807716        0.3821980334
      311.0000000000        5.7347474780        0.4951860345
      312.0000000000        6.1902289936        0.3722297241
      313.0000000000        6.4084651146        0.0433875004
      314.0000000000        6.2683515273       -0.3144007445
      315.0000000000        5.8119185706       -0.5650697103
      316.0000000000        5.1962078630       -0.6328948962
      317.0000000000        4.6061762511       -0.5236533912
      318.0000000000        4.1801822434       -0.3196843059
      319.0000000000        3.9745864699       -0.0910496409
