# IR Spectrum
# X-Axis:  Frequency (cm-1)
# Y-Axis:  Epsilon
#                  X                   Y               DY/DX
        0.0000000000        0.0206039552        0.0004934556
        1.0000000000        0.0226242728        0.0005401138
        2.0000000000        0.0231796991        0.0005713001
        3.0000000000        0.0237680930        0.0006061510
        4.0000000000        0.0243934488        0.0006453509
        5.0000000000        0.0250605278        0.0006897571
        6.0000000000        0.0257750568        0.0007404545
        7.0000000000        0.0265439920        0.0007988312
        8.0000000000        0.0273758716        0.0008666837
        9.0000000000        0.0282812945        0.0009463664
       10.0000000000        0.0325137280        0.0010816749
       11.0000000000        0.0336508799        0.0011962486
       12.0000000000        0.0349145081        0.0013357433
       13.0000000000        0.0363332886        0.0015081092
       14.0000000000        0.0379453539        0.0017245117
       15.0000000000        0.0398022089        0.0020008318
       16.0000000000        0.0419744792        0.0023598665
       17.0000000000        0.0445602874        0.0028343959
       18.0000000000        0.0508110929        0.0035099490
       19.0000000000        0.0547301865        0.0043716338
       20.0000000000        0.0596534163        0.0055298240
       21.0000000000        0.0659042602        0.0070266681
       22.0000000000        0.0737848471        0.0087429505
       23.0000000000        0.0832788756        0.0100966236
       24.0000000000        0.0934175479        0.0097611697
       25.0000000000        0.1018018189        0.0065266972
       26.0000000000        0.1059368450        0.0017895743
       27.0000000000        0.1060913496       -0.0009211293
       28.0000000000        0.1052194296       -0.0003621964
       29.0000000000        0.1059370828        0.0019012625
       30.0000000000        0.1089107764        0.0038598834
       31.0000000000        0.1131676619        0.0044215314
       32.0000000000        0.1175319877        0.0043593031
       33.0000000000        0.1222488528        0.0053040059
       34.0000000000        0.1284015102        0.0069486562
       35.0000000000        0.1355321422        0.0067553896
       36.0000000000        0.1405339630        0.0025855195
       37.0000000000        0.1399805392       -0.0036296256
       38.0000000000        0.1341822081       -0.0072712711
       39.0000000000        0.1268061384       -0.0069243193
       40.0000000000        0.1210791223       -0.0043219939
       41.0000000000        0.1183605511       -0.0010862017
       42.0000000000        0.1189114451        0.0021832747
       43.0000000000        0.1249422354        0.0055282445
       44.0000000000        0.1322454871        0.0091591953
       45.0000000000        0.1434884715        0.0134754273
       46.0000000000        0.1595642596        0.0188932512
       47.0000000000        0.1817522855        0.0257259307
       48.0000000000        0.2114086191        0.0336767832
       49.0000000000        0.2487888812        0.0405439307
       50.0000000000        0.2902138610        0.0404575035
       51.0000000000        0.3247922641        0.0259794394
       52.0000000000        0.3380178216       -0.0003150286
       53.0000000000        0.3259615739       -0.0215015181
       54.0000000000        0.3005087324       -0.0268409511
       55.0000000000        0.2759492542       -0.0212605470
       56.0000000000        0.2587516153       -0.0138278727
       57.0000000000        0.2490124750       -0.0105278114
       58.0000000000        0.2379438627       -0.0121510693
       59.0000000000        0.2245790978       -0.0142149689
       60.0000000000        0.2106253021       -0.0131213433
       61.0000000000        0.1991894039       -0.0094962626
       62.0000000000        0.1918563148       -0.0051616990
       63.0000000000        0.1887815120       -0.0010544649
       64.0000000000        0.1896160610        0.0026683751
       65.0000000000        0.1940445750        0.0061727496
       66.0000000000        0.2019759893        0.0097214187
       67.0000000000        0.2136017547        0.0136146441
       68.0000000000        0.2294355218        0.0182015018
       69.0000000000        0.2503802618        0.0239195597
       70.0000000000        0.2778422402        0.0313467619
       71.0000000000        0.3167003899        0.0412791526
       72.0000000000        0.3642967446        0.0545503695
       73.0000000000        0.4271661574        0.0718731288
       74.0000000000        0.5091505550        0.0923639908
       75.0000000000        0.6111169741        0.1101768254
       76.0000000000        0.7235668720        0.1099045961
       77.0000000000        0.8181282475        0.0721416286
       78.0000000000        0.8570866114        0.0037786057
       79.0000000000        0.8305171413       -0.0508420114
       80.0000000000        0.7700179848       -0.0632204691
       81.0000000000        0.7146014005       -0.0441489458
       82.0000000000        0.6894749476       -0.0121781713
       83.0000000000        0.6951063482        0.0239053029
       84.0000000000        0.7383357849        0.0632236923
       85.0000000000        0.8232344664        0.1075303889
       86.0000000000        0.9550904060        0.1566346164
       87.0000000000        1.1351888297        0.2010899985
       88.0000000000        1.3460981782        0.2112227953
       89.0000000000        1.5304999802        0.1412346093
       90.0000000000        1.5994169786       -0.0121790338
       91.0000000000        1.5080734760       -0.1601649188
       92.0000000000        1.3092696740       -0.2215888166
       93.0000000000        1.0900358286       -0.2085179081
       94.0000000000        0.9014127764       -0.1670576581
       95.0000000000        0.7559353019       -0.1249048326
       96.0000000000        0.6488415892       -0.0907879507
       97.0000000000        0.5720109178       -0.0651771112
       98.0000000000        0.5167387939       -0.0463273193
       99.0000000000        0.4777339881       -0.0323592147
      100.0000000000        0.4508897952       -0.0217968416
      101.0000000000        0.4333633039       -0.0135759404
      102.0000000000        0.4232094619       -0.0069475975
      103.0000000000        0.4191154602       -0.0013819667
      104.0000000000        0.4202203972        0.0035052124
      105.0000000000        0.4259972570        0.0080046465
      106.0000000000        0.4361786781        0.0123500548
      107.0000000000        0.4507139183        0.0167448168
      108.0000000000        0.4697493499        0.0213830065
      109.0000000000        0.4936286039        0.0264681621
      110.0000000000        0.5229115612        0.0322326791
      111.0000000000        0.5584142623        0.0389607818
      112.0000000000        0.6012750213        0.0470186340
      113.0000000000        0.6530561386        0.0568963520
      114.0000000000        0.7158962161        0.0692684548
      115.0000000000        0.7927355673        0.0850810793
      116.0000000000        0.8876455982        0.1056735374
      117.0000000000        1.0062960307        0.1329291062
      118.0000000000        1.1565670586        0.1693947335
      119.0000000000        1.3491768608        0.2181212223
      120.0000000000        1.5977181991        0.2814321508
      121.0000000000        1.9161689400        0.3566482162
      122.0000000000        2.3094261667        0.4261610279
      123.0000000000        2.7527270474        0.4481536815
      124.0000000000        3.1763332816        0.3852453214
      125.0000000000        3.5101624959        0.2863456304
      126.0000000000        3.7766487000        0.2663540780
      127.0000000000        4.0787683763        0.3498169084
      128.0000000000        4.4819890357        0.4507173031
      129.0000000000        4.9588810148        0.4923355057
      130.0000000000        5.4592273607        0.5138704019
      131.0000000000        6.0081431289        0.5929718455
      132.0000000000        6.6352653372        0.6358531935
      133.0000000000        7.1832402597        0.3944260895
      134.0000000000        7.2988331897       -0.2044850726
      135.0000000000        6.7731839886       -0.8066064300
      136.0000000000        5.8103700379       -1.0516826500
      137.0000000000        4.7779673900       -0.9768589486
      138.0000000000        3.8964063291       -0.7791765633
      139.0000000000        3.2191244964       -0.5801019676
      140.0000000000        2.7235383965       -0.4179082510
      141.0000000000        2.3728655522       -0.2940667106
      142.0000000000        2.1278685191       -0.2001017115
      143.0000000000        1.9657749174       -0.1268604863
      144.0000000000        1.8697496447       -0.0668682652
      145.0000000000        1.8299022525       -0.0142598364
      146.0000000000        1.8406907708        0.0357809830
      147.0000000000        1.9020825839        0.0876845203
      148.0000000000        2.0182235757        0.1461084473
      149.0000000000        2.1983007701        0.2165879120
      150.0000000000        2.4611863425        0.3062349701
      151.0000000000        2.8235294014        0.4239906793
      152.0000000000        3.3219647714        0.5800417431
      153.0000000000        3.9985575282        0.7802911235
      154.0000000000        4.8930206255        1.0085482896
      155.0000000000        6.0005383021        1.1862760671
      156.0000000000        7.1904617080        1.1379984792
      157.0000000000        8.1479324986        0.7104354315
      158.0000000000        8.5417203114        0.0779453437
      159.0000000000        8.3686991337       -0.3750459639
      160.0000000000        7.8757715352       -0.5834058207
      161.0000000000        7.2345466407       -0.6855548601
      162.0000000000        6.5441917120       -0.6686086748
      163.0000000000        5.9529656786       -0.4892149139
      164.0000000000        5.6016929551       -0.2020795500
      165.0000000000        5.5607144191        0.1216902445
      166.0000000000        5.8394819510        0.4275100327
      167.0000000000        6.3809574948        0.6259697221
      168.0000000000        7.0024684284        0.5589908106
      169.0000000000        7.3786520167        0.1448738622
      170.0000000000        7.2589292961       -0.3632470392
      171.0000000000        6.7511406024       -0.5887654548
      172.0000000000        6.1972217896       -0.4742355826
      173.0000000000        5.8612835324       -0.1821511913
      174.0000000000        5.8422719210        0.1389374661
      175.0000000000        6.1070167343        0.3616681417
      176.0000000000        6.4776983250        0.3218184036
      177.0000000000        6.6275224705       -0.0746606312
      178.0000000000        6.2878539856       -0.6050699666
      179.0000000000        5.5053738716       -0.9039843976
      180.0000000000        4.5827513871       -0.9020499435
      181.0000000000        3.7498875622       -0.7522250643
      182.0000000000        3.0846689720       -0.5804654408
      183.0000000000        2.5797007451       -0.4351910715
      184.0000000000        2.2028784668       -0.3237780358
      185.0000000000        1.9227274618       -0.2405824155
      186.0000000000        1.7148037963       -0.1780784987
      187.0000000000        1.5617711447       -0.1299395227
      188.0000000000        1.4517404749       -0.0913939395
      189.0000000000        1.3769800100       -0.0588839202
      190.0000000000        1.3328905299       -0.0296333101
      191.0000000000        1.3174200417       -0.0012647882
      192.0000000000        1.3308206030        0.0285364813
      193.0000000000        1.3758072181        0.0623456235
      194.0000000000        1.4578946415        0.1033339891
      195.0000000000        1.5862141596        0.1555735709
      196.0000000000        1.7744521455        0.2240468509
      197.0000000000        2.0412796951        0.3134022429
      198.0000000000        2.4089065725        0.4226976326
      199.0000000000        2.8874906710        0.5303219651
      200.0000000000        3.4466547633        0.5671025328
      201.0000000000        3.9586614361        0.4170417525
      202.0000000000        4.2044731386        0.0482070606
      203.0000000000        4.0494016344       -0.3365821567
      204.0000000000        3.6044574043       -0.5120668431
      205.0000000000        3.0939581746       -0.4847863683
      206.0000000000        2.6643082327       -0.3700647235
      207.0000000000        2.3582305841       -0.2431838476
      208.0000000000        2.1737797304       -0.1280403410
      209.0000000000        2.0983084244       -0.0242024238
      210.0000000000        2.1243258354        0.0765156954
      211.0000000000        2.2534112746        0.1833504270
      212.0000000000        2.4949627592        0.3020547580
      213.0000000000        2.8593547825        0.4256812987
      214.0000000000        3.3358297763        0.5160556085
      215.0000000000        3.8523386977        0.4883942842
      216.0000000000        4.2426594978        0.2559347778
      217.0000000000        4.3125173556       -0.1237151873
      218.0000000000        4.0249587010       -0.4184703562
      219.0000000000        3.5516971336       -0.4929054775
      220.0000000000        3.0937297707       -0.4132057433
      221.0000000000        2.7447893784       -0.2819272891
      222.0000000000        2.5298752109       -0.1493310773
      223.0000000000        2.4429469006       -0.0257849385
      224.0000000000        2.4772771555        0.0948136034
      225.0000000000        2.6352357598        0.2233796180
      226.0000000000        2.9301467927        0.3700244282
      227.0000000000        3.3819664349        0.5358110039
      228.0000000000        3.9993537860        0.6921248069
      229.0000000000        4.7329346437        0.7459276496
      230.0000000000        5.4065008391        0.5493951069
      231.0000000000        5.7377643804        0.0840734476
      232.0000000000        5.5796682092       -0.3665528309
      233.0000000000        5.1059274090       -0.5263410378
      234.0000000000        4.6168475470       -0.4198658638
      235.0000000000        4.3065219894       -0.1896727739
      236.0000000000        4.2496823624        0.0790192919
      237.0000000000        4.4673673739        0.3560721880
      238.0000000000        4.9541326728        0.6089295214
      239.0000000000        5.6452123342        0.7392388418
      240.0000000000        6.3303647563        0.5651349725
      241.0000000000        6.6425279014        0.0079752572
      242.0000000000        6.3170907963       -0.6322764237
      243.0000000000        5.4877507339       -0.9596008592
      244.0000000000        4.5137153810       -0.9464433790
      245.0000000000        3.6450999424       -0.7796279631
      246.0000000000        2.9596299165       -0.5942178659
      247.0000000000        2.4463162891       -0.4385375728
      248.0000000000        2.0706216226       -0.3182975275
      249.0000000000        1.8003280315       -0.2262069817
      250.0000000000        1.6109939891       -0.1532105672
      251.0000000000        1.4892395422       -0.0916832258
      252.0000000000        1.4255799057       -0.0364383391
      253.0000000000        1.4145653691        0.0130997027
      254.0000000000        1.4470176799        0.0478138641
      255.0000000000        1.4976329828        0.0447777647
      256.0000000000        1.5169968346       -0.0151380042
      257.0000000000        1.4573326211       -0.1035854580
      258.0000000000        1.3213619733       -0.1593806830
      259.0000000000        1.1562223291       -0.1637740851
      260.0000000000        1.0030986128       -0.1400873219
      261.0000000000        0.8777521324       -0.1107951216
      262.0000000000        0.7801575157       -0.0853143883
      263.0000000000        0.7052211142       -0.0654673025
      264.0000000000        0.6475908506       -0.0505066310
      265.0000000000        0.6029818382       -0.0392312788
      266.0000000000        0.5682476925       -0.0306069747
      267.0000000000        0.5460397256       -0.0238028606
      268.0000000000        0.5250342944       -0.0183944614
      269.0000000000        0.5089349701       -0.0139372218
      270.0000000000        0.4969344899       -0.0101585345
      271.0000000000        0.4884579912       -0.0068612334
      272.0000000000        0.4831007796       -0.0038987669
      273.0000000000        0.4805866949       -0.0011583115
      274.0000000000        0.4807405439        0.0014508518
      275.0000000000        0.4834703356        0.0040055728
      276.0000000000        0.4887566065        0.0065749513
      277.0000000000        0.4966471848        0.0092252166
      278.0000000000        0.5072564838        0.0120239983
      279.0000000000        0.5207689747        0.0150444928
      280.0000000000        0.5374469646        0.0183699824
      281.0000000000        0.5576432715        0.0220992013
      282.0000000000        0.5818199319        0.0263531456
      283.0000000000        0.6105747664        0.0312841413
      284.0000000000        0.6446786042        0.0370883237
      285.0000000000        0.6841674990        0.0440351975
      286.0000000000        0.7322673805        0.0524449248
      287.0000000000        0.7897030820        0.0627976958
      288.0000000000        0.8659152778        0.0758301764
      289.0000000000        0.9496273598        0.0922699932
      290.0000000000        1.0510122144        0.1135064474
      291.0000000000        1.1857838905        0.1414617651
      292.0000000000        1.3449078553        0.1786107106
      293.0000000000        1.5473471200        0.2288319995
      294.0000000000        1.8048953180        0.2973031780
      295.0000000000        2.1462778270        0.3899955768
      296.0000000000        2.5944646740        0.5110862976
      297.0000000000        3.1757090005        0.6528201873
      298.0000000000        3.8932620980        0.7716835822
      299.0000000000        4.6765484731        0.7618203429
      300.0000000000        5.3342751113        0.5113582086
      301.0000000000        5.6447103152        0.1066269032
      302.0000000000        5.5949648077       -0.1633020445
      303.0000000000        5.4087993485       -0.1701854389
      304.0000000000        5.3086645592       -0.0135847371
      305.0000000000        5.4031679527        0.2105164434
      306.0000000000        5.7421194758        0.4703039588
      307.0000000000        6.3336013016        0.6956979909
      308.0000000000        7.0662075695        0.7183158376
      309.0000000000        7.6466131110        0.3816821482
      310.0000000000        7.7561045593       -0.1631995296
      311.0000000000        7.3921713546       -0.5042989212
      312.0000000000        6.8693710228       -0.4921894481
      313.0000000000        6.4671722814       -0.3009434942
      314.0000000000        6.2639008273       -0.1168089196
      315.0000000000        6.1969770290       -0.0429178344
      316.0000000000        6.1112116139       -0.1662321357
      317.0000000000        5.8040877675       -0.4615803827
      318.0000000000        5.2033618328       -0.7034427762
      319.0000000000        4.4650239814       -0.7394781444
