# IR Spectrum
# X-Axis:  Frequency (cm-1)
# Y-Axis:  Epsilon
#                  X                   Y               DY/DX
        0.0000000000        0.0256754498        0.0009628771
        1.0000000000        0.0266709409        0.0010291893
        2.0000000000        0.0277361444        0.0011024544
        3.0000000000        0.0288784977        0.0011836693
        4.0000000000        0.0312431345        0.0012882544
        5.0000000000        0.0325810187        0.0013894008
        6.0000000000        0.0340260045        0.0015027636
        7.0000000000        0.0355912862        0.0016303616
        8.0000000000        0.0372922819        0.0017746399
        9.0000000000        0.0391471121        0.0019385789
       10.0000000000        0.0411772035        0.0021258381
       11.0000000000        0.0434080585        0.0023409451
       12.0000000000        0.0458702426        0.0025895469
       13.0000000000        0.0486006643        0.0028787479
       14.0000000000        0.0535736633        0.0032416846
       15.0000000000        0.0570099161        0.0036421491
       16.0000000000        0.0608833056        0.0041187992
       17.0000000000        0.0652793860        0.0046912742
       18.0000000000        0.0703063783        0.0053856152
       19.0000000000        0.0761027559        0.0062367884
       20.0000000000        0.0828478929        0.0072923663
       21.0000000000        0.0907772087        0.0086179603
       22.0000000000        0.1002039825        0.0103053127
       23.0000000000        0.1115511348        0.0124844113
       24.0000000000        0.1253979180        0.0153415641
       25.0000000000        0.1425486466        0.0191458013
       26.0000000000        0.1641327513        0.0242851348
       27.0000000000        0.1917446750        0.0313081033
       28.0000000000        0.2276180163        0.0409419870
       29.0000000000        0.2747676002        0.0539805043
       30.0000000000        0.3368335860        0.0707160187
       31.0000000000        0.4168351366        0.0891606462
       32.0000000000        0.5131709448        0.1013188185
       33.0000000000        0.6119659721        0.0910225607
       34.0000000000        0.6874176606        0.0477176323
       35.0000000000        0.7071362310       -0.0065309048
       36.0000000000        0.6836976300       -0.0342325787
       37.0000000000        0.6492639485       -0.0311419787
       38.0000000000        0.6238741408       -0.0204241736
       39.0000000000        0.6046533942       -0.0201475606
       40.0000000000        0.5810711719       -0.0270578771
       41.0000000000        0.5521000098       -0.0299453705
       42.0000000000        0.5216634909       -0.0315586300
       43.0000000000        0.4868814091       -0.0388772282
       44.0000000000        0.4439603635       -0.0459441762
       45.0000000000        0.3981574867       -0.0439684919
       46.0000000000        0.3586702571       -0.0341653314
       47.0000000000        0.3360644096       -0.0217095077
       48.0000000000        0.3204569076       -0.0096543197
       49.0000000000        0.3197043420        0.0016002910
       50.0000000000        0.3267694731        0.0125632007
       51.0000000000        0.3450755940        0.0242675804
       52.0000000000        0.3768500977        0.0379471070
       53.0000000000        0.4229968687        0.0550586353
       54.0000000000        0.4886914080        0.0773413440
       55.0000000000        0.5799408224        0.1063559486
       56.0000000000        0.7035921758        0.1417268227
       57.0000000000        0.8632464827        0.1761111546
       58.0000000000        1.0479925450        0.1863297812
       59.0000000000        1.2148683319        0.1342427497
       60.0000000000        1.2916162479        0.0108734004
       61.0000000000        1.2354509615       -0.1157775133
       62.0000000000        1.0842199291       -0.1732805748
       63.0000000000        0.9109427261       -0.1656407999
       64.0000000000        0.7617232896       -0.1309759578
       65.0000000000        0.6496229209       -0.0938426739
       66.0000000000        0.5720944113       -0.0623092234
       67.0000000000        0.5258421386       -0.0368273850
       68.0000000000        0.4998460444       -0.0157103273
       69.0000000000        0.4936783579        0.0031716550
       70.0000000000        0.5060992903        0.0217758286
       71.0000000000        0.5377096476        0.0418006510
       72.0000000000        0.5905400056        0.0642821234
       73.0000000000        0.6668017301        0.0881805837
       74.0000000000        0.7654463968        0.1074579989
       75.0000000000        0.8770024580        0.1100995290
       76.0000000000        0.9788385132        0.0908335077
       77.0000000000        1.0586579005        0.0719866377
       78.0000000000        1.1397696853        0.0855606876
       79.0000000000        1.2482790184        0.1367156751
       80.0000000000        1.4202807825        0.2087908083
       81.0000000000        1.6631094947        0.2717065694
       82.0000000000        1.9426177640        0.2706722287
       83.0000000000        2.1612710310        0.1431941366
       84.0000000000        2.1939601146       -0.0841148845
       85.0000000000        2.0085436755       -0.2676547664
       86.0000000000        1.7034816697       -0.3217558693
       87.0000000000        1.3951324538       -0.2858643625
       88.0000000000        1.1406296236       -0.2220722777
       89.0000000000        0.9496215190       -0.1616141572
       90.0000000000        0.8135300519       -0.1125032018
       91.0000000000        0.7230919308       -0.0736750865
       92.0000000000        0.6657184203       -0.0419910212
       93.0000000000        0.6376999897       -0.0145904259
       94.0000000000        0.6355207001        0.0096366378
       95.0000000000        0.6550829300        0.0279685609
       96.0000000000        0.6866246825        0.0316998515
       97.0000000000        0.7103197184        0.0116037820
       98.0000000000        0.7044865796       -0.0237159098
       99.0000000000        0.6667634366       -0.0480826111
      100.0000000000        0.6173085354       -0.0497154648
      101.0000000000        0.5732468849       -0.0370078350
      102.0000000000        0.5446813019       -0.0199139456
      103.0000000000        0.5333994780       -0.0027563392
      104.0000000000        0.5389940816        0.0139230000
      105.0000000000        0.5614123263        0.0311201217
      106.0000000000        0.6019344831        0.0504302988
      107.0000000000        0.6636378293        0.0738498930
      108.0000000000        0.7518062082        0.1037960867
      109.0000000000        0.8742915107        0.1429024038
      110.0000000000        1.0412401497        0.1927427107
      111.0000000000        1.2622676300        0.2495776571
      112.0000000000        1.5368683373        0.2949649085
      113.0000000000        1.8349904300        0.2887146982
      114.0000000000        2.0857072343        0.1998977576
      115.0000000000        2.2231533754        0.0783939684
      116.0000000000        2.2642787941        0.0181451110
      117.0000000000        2.2808909870        0.0187907349
      118.0000000000        2.2916514213       -0.0099735038
      119.0000000000        2.2308360233       -0.1240327141
      120.0000000000        2.0384097620       -0.2575200924
      121.0000000000        1.7445007742       -0.3141991325
      122.0000000000        1.4371987693       -0.2909220618
      123.0000000000        1.1732417467       -0.2350893603
      124.0000000000        0.9667942288       -0.1791701472
      125.0000000000        0.8112350979       -0.1339385140
      126.0000000000        0.6972763069       -0.0999531168
      127.0000000000        0.6104446834       -0.0749956765
      128.0000000000        0.5451015692       -0.0566073844
      129.0000000000        0.4956877043       -0.0428638893
      130.0000000000        0.4582938867       -0.0323737502
      131.0000000000        0.4322717226       -0.0241301108
      132.0000000000        0.4115695329       -0.0174908171
      133.0000000000        0.3969329171       -0.0119270227
      134.0000000000        0.3874848933       -0.0070573507
      135.0000000000        0.3826904908       -0.0025719101
      136.0000000000        0.3823055250        0.0018069643
      137.0000000000        0.3863618545        0.0063593842
      138.0000000000        0.3951872482        0.0114032217
      139.0000000000        0.4094624180        0.0173333945
      140.0000000000        0.4303186798        0.0246623524
      141.0000000000        0.4594683472        0.0340375362
      142.0000000000        0.4993076216        0.0461428888
      143.0000000000        0.5527581867        0.0612012945
      144.0000000000        0.6221533033        0.0774147155
      145.0000000000        0.7057000832        0.0876657037
      146.0000000000        0.7906479240        0.0774444359
      147.0000000000        0.8516606267        0.0366681316
      148.0000000000        0.8614848467       -0.0157846788
      149.0000000000        0.8280838738       -0.0454767537
      150.0000000000        0.7809677925       -0.0446371657
      151.0000000000        0.7442340857       -0.0273438330
      152.0000000000        0.7276768731       -0.0055806759
      153.0000000000        0.7330576124        0.0162730954
      154.0000000000        0.7602157294        0.0381545108
      155.0000000000        0.8099136831        0.0616985119
      156.0000000000        0.8849480128        0.0892649074
      157.0000000000        0.9907322512        0.1237080245
      158.0000000000        1.1356833242        0.1680790716
      159.0000000000        1.3308512945        0.2241535258
      160.0000000000        1.5865896267        0.2874555382
      161.0000000000        1.9011071945        0.3356706781
      162.0000000000        2.2358171111        0.3171674234
      163.0000000000        2.4954298425        0.1823594569
      164.0000000000        2.5769365848       -0.0191541789
      165.0000000000        2.4821240237       -0.1494520012
      166.0000000000        2.3220002960       -0.1517365619
      167.0000000000        2.2062635245       -0.0708793868
      168.0000000000        2.1965524930        0.0439687363
      169.0000000000        2.3038800911        0.1722724568
      170.0000000000        2.5430682357        0.3060256309
      171.0000000000        2.9106588442        0.4223992893
      172.0000000000        3.3603341431        0.4544316038
      173.0000000000        3.7568536816        0.3016042400
      174.0000000000        3.8992116494       -0.0352607673
      175.0000000000        3.6935793442       -0.3517719121
      176.0000000000        3.2637763067       -0.4727688309
      177.0000000000        2.8029676188       -0.4307852855
      178.0000000000        2.4219060831       -0.3277673660
      179.0000000000        2.1475618469       -0.2229501611
      180.0000000000        1.9705427906       -0.1339832063
      181.0000000000        1.8743591444       -0.0605893872
      182.0000000000        1.8459465877        0.0025641956
      183.0000000000        1.8780953562        0.0615349125
      184.0000000000        1.9696128121        0.1223032446
      185.0000000000        2.1253778442        0.1911311914
      186.0000000000        2.3569430176        0.2752121095
      187.0000000000        2.6837281425        0.3831025042
      188.0000000000        3.1341377387        0.5238427175
      189.0000000000        3.7439521468        0.7015412686
      190.0000000000        4.5441517766        0.8976267926
      191.0000000000        5.5198077782        1.0314188613
      192.0000000000        6.5280853884        0.9280822755
      193.0000000000        7.2442107982        0.4428050112
      194.0000000000        7.3488343836       -0.2258076119
      195.0000000000        6.8821406037       -0.6387471079
      196.0000000000        6.2076854246       -0.6585638642
      197.0000000000        5.6427424120       -0.4492255408
      198.0000000000        5.3325007717       -0.1664191859
      199.0000000000        5.3144164125        0.1318073610
      200.0000000000        5.6011811759        0.4462629308
      201.0000000000        6.2193648598        0.7982582663
      202.0000000000        7.2158830980        1.2035065205
      203.0000000000        8.6358615022        1.6337485487
      204.0000000000       10.4460488032        1.9460646478
      205.0000000000       12.3893826704        1.8433735310
      206.0000000000       13.9144038210        1.1054922437
      207.0000000000       14.4731619939       -0.0047120402
      208.0000000000       13.9512608022       -0.9873559436
      209.0000000000       12.6392895986       -1.5662704080
      210.0000000000       10.9812099293       -1.6817167429
      211.0000000000        9.3669582421       -1.5252476942
      212.0000000000        7.9410103639       -1.3295532038
      213.0000000000        6.7053347377       -1.1391000859
      214.0000000000        5.6724682050       -0.9222240236
      215.0000000000        4.8640321702       -0.6961615569
      216.0000000000        4.2727141377       -0.4915077546
      217.0000000000        3.8705713270       -0.3176671969
      218.0000000000        3.6292084111       -0.1681809900
      219.0000000000        3.5301128318       -0.0309601573
      220.0000000000        3.5675870008        0.1071394432
      221.0000000000        3.7481590735        0.2585528413
      222.0000000000        4.0912809679        0.4313925409
      223.0000000000        4.6158323875        0.6174591708
      224.0000000000        5.3137903900        0.7634583293
      225.0000000000        6.0870687854        0.7413188401
      226.0000000000        6.6949241114        0.4238850265
      227.0000000000        6.8727697745       -0.0690458534
      228.0000000000        6.6185731940       -0.3860430455
      229.0000000000        6.2137085249       -0.3741490427
      230.0000000000        5.9425187479       -0.1450744095
      231.0000000000        5.9508510744        0.1683450938
      232.0000000000        6.2831333036        0.4941700073
      233.0000000000        6.9273943160        0.7848045031
      234.0000000000        7.8294337770        1.0072708225
      235.0000000000        8.9191551242        1.1587250192
      236.0000000000       10.0947274670        1.1445744363
      237.0000000000       11.0558272357        0.6801060200
      238.0000000000       11.2740597803       -0.2987299433
      239.0000000000       10.4739974440       -1.2323493458
      240.0000000000        9.0096869566       -1.5912777075
      241.0000000000        7.4576643325       -1.4575918070
      242.0000000000        6.1550656930       -1.1364760924
      243.0000000000        5.1879553058       -0.8084887347
      244.0000000000        4.5232754501       -0.5267628726
      245.0000000000        4.1184623472       -0.2888696439
      246.0000000000        3.9363830340       -0.0786486833
      247.0000000000        3.9554295673        0.1135469267
      248.0000000000        4.1526150743        0.2713879668
      249.0000000000        4.4652631516        0.3287630996
      250.0000000000        4.7436166782        0.1903863756
      251.0000000000        4.7848682150       -0.1226995610
      252.0000000000        4.5135381748       -0.3924805111
      253.0000000000        4.0724656575       -0.4569411776
      254.0000000000        3.6553906487       -0.3593055197
      255.0000000000        3.3736826364       -0.2005417155
      256.0000000000        3.2524140318       -0.0469951061
      257.0000000000        3.2608067068        0.0492403010
      258.0000000000        3.3109470428        0.0275683989
      259.0000000000        3.2705343779       -0.1244456106
      260.0000000000        3.0552792371       -0.2962786438
      261.0000000000        2.7134925011       -0.3669150154
      262.0000000000        2.3552591689       -0.3378753713
      263.0000000000        2.0508775606       -0.2683924136
      264.0000000000        1.8186948396       -0.1973314754
      265.0000000000        1.6524233615       -0.1372743309
      266.0000000000        1.5403001104       -0.0886599816
      267.0000000000        1.4723134547       -0.0484094152
      268.0000000000        1.4418669961       -0.0130128042
      269.0000000000        1.4457563468        0.0207837033
      270.0000000000        1.4839345655        0.0560868145
      271.0000000000        1.5595238312        0.0961903566
      272.0000000000        1.6791883558        0.1449406281
      273.0000000000        1.8538158400        0.2069384357
      274.0000000000        2.1068651705        0.2870860757
      275.0000000000        2.4415846987        0.3871394203
      276.0000000000        2.8837791114        0.4966072353
      277.0000000000        3.4242492268        0.5726883115
      278.0000000000        3.9897050151        0.5310314677
      279.0000000000        4.4287327753        0.3238483365
      280.0000000000        4.6233196382        0.0806617764
      281.0000000000        4.6472163924        0.0040505037
      282.0000000000        4.6986007119        0.1241927631
      283.0000000000        4.9242439239        0.3297176635
      284.0000000000        5.3386779997        0.4768566422
      285.0000000000        5.8116597965        0.4293913915
      286.0000000000        6.1291886313        0.1867848600
      287.0000000000        6.1933016835       -0.0347466197
      288.0000000000        6.1169281672       -0.0964614473
      289.0000000000        6.0062824173       -0.1416689745
      290.0000000000        5.7770668695       -0.3456535534
      291.0000000000        5.2885044199       -0.6232616092
      292.0000000000        4.5822639220       -0.7542104180
      293.0000000000        3.8435232885       -0.6996816751
      294.0000000000        3.2108467693       -0.5598667315
      295.0000000000        2.7251979985       -0.4139689861
      296.0000000000        2.3753255430       -0.2899963865
      297.0000000000        2.1373218535       -0.1894420504
      298.0000000000        1.9909110650       -0.1054494701
      299.0000000000        1.9236693520       -0.0297326347
      300.0000000000        1.9313463754        0.0456610598
      301.0000000000        2.0172603631        0.1277814452
      302.0000000000        2.1906076713        0.2206946299
      303.0000000000        2.4604364906        0.3180814807
      304.0000000000        2.8175249049        0.3860641151
      305.0000000000        3.1972529843        0.3477350959
      306.0000000000        3.4526908097        0.1342213694
      307.0000000000        3.4323535987       -0.1738440261
      308.0000000000        3.1411768181       -0.3784868388
      309.0000000000        2.7344521804       -0.4103946433
      310.0000000000        2.3533670488       -0.3427822779
      311.0000000000        2.0564766927       -0.2507703570
      312.0000000000        1.8489078038       -0.1666845817
      313.0000000000        1.7182569598       -0.0968855678
      314.0000000000        1.6513085833       -0.0385199376
      315.0000000000        1.6390522765        0.0133477186
      316.0000000000        1.6775113935        0.0637344216
      317.0000000000        1.7676837735        0.1176237650
      318.0000000000        1.9157290640        0.1804625719
      319.0000000000        2.1337796425        0.2588798367
