# IR Spectrum
# X-Axis:  Frequency (cm-1)
# Y-Axis:  Epsilon
#                  X                   Y               DY/DX
        0.0000000000        0.0253386787        0.0009055347
        1.0000000000        0.0262717860        0.0009614866
        2.0000000000        0.0272633623        0.0010225723
        3.0000000000        0.0283188557        0.0010894365
        4.0000000000        0.0294444099        0.0011628286
        5.0000000000        0.0317807609        0.0012578412
        6.0000000000        0.0330826011        0.0013473407
        7.0000000000        0.0344786583        0.0014464956
        8.0000000000        0.0359792894        0.0015567511
        9.0000000000        0.0375964331        0.0016798362
       10.0000000000        0.0393439278        0.0018178343
       11.0000000000        0.0412379098        0.0019732755
       12.0000000000        0.0451126382        0.0021719452
       13.0000000000        0.0473827601        0.0023727270
       14.0000000000        0.0498677975        0.0026026661
       15.0000000000        0.0525998023        0.0028677900
       16.0000000000        0.0556176456        0.0031757920
       17.0000000000        0.0589689604        0.0035366179
       18.0000000000        0.0627127872        0.0039633023
       19.0000000000        0.0669232287        0.0044731766
       20.0000000000        0.0716945732        0.0050896330
       21.0000000000        0.0771485661        0.0058447113
       22.0000000000        0.0834448274        0.0067828693
       23.0000000000        0.0907957942        0.0079663153
       24.0000000000        0.0994878161        0.0094819015
       25.0000000000        0.1099093139        0.0114477279
       26.0000000000        0.1225824074        0.0140110236
       27.0000000000        0.1381777076        0.0173089382
       28.0000000000        0.1574423391        0.0213155822
       29.0000000000        0.1808620921        0.0254412076
       30.0000000000        0.2078032985        0.0279683933
       31.0000000000        0.2354864226        0.0266650731
       32.0000000000        0.2600983838        0.0224734723
       33.0000000000        0.2814301679        0.0211966292
       34.0000000000        0.3049456999        0.0270816616
       35.0000000000        0.3377815241        0.0395018049
       36.0000000000        0.3861336930        0.0564051643
       37.0000000000        0.4520353115        0.0754841062
       38.0000000000        0.5362848670        0.0919611048
       39.0000000000        0.6323849213        0.0978778411
       40.0000000000        0.7275887223        0.0911274366
       41.0000000000        0.8237236671        0.0850387566
       42.0000000000        0.9097820758        0.0878641036
       43.0000000000        0.9970677661        0.0835765197
       44.0000000000        1.0696302542        0.0589392532
       45.0000000000        1.1155938384        0.0364406343
       46.0000000000        1.1523891332        0.0417241146
       47.0000000000        1.2083138543        0.0561768555
       48.0000000000        1.2576123753        0.0326307247
       49.0000000000        1.2536470153       -0.0478164353
       50.0000000000        1.1594926391       -0.1353885987
       51.0000000000        1.0007222212       -0.1720299816
       52.0000000000        0.8321119643       -0.1594759474
       53.0000000000        0.6881213799       -0.1273472501
       54.0000000000        0.5773768370       -0.0948875453
       55.0000000000        0.4977632148       -0.0683077900
       56.0000000000        0.4401088203       -0.0479341895
       57.0000000000        0.4002880894       -0.0323809562
       58.0000000000        0.3742385080       -0.0201624742
       59.0000000000        0.3592659706       -0.0100439567
       60.0000000000        0.3537818435       -0.0010367982
       61.0000000000        0.3571007205        0.0076933715
       62.0000000000        0.3693323229        0.0169140403
       63.0000000000        0.3913365387        0.0273532394
       64.0000000000        0.4246313294        0.0395464021
       65.0000000000        0.4709421415        0.0532029085
       66.0000000000        0.5306945581        0.0656843076
       67.0000000000        0.6025025170        0.0705565851
       68.0000000000        0.6697941372        0.0617943432
       69.0000000000        0.7239388647        0.0471312835
       70.0000000000        0.7688466456        0.0463292624
       71.0000000000        0.8243465834        0.0682351231
       72.0000000000        0.9110462479        0.1072617765
       73.0000000000        1.0413336133        0.1534930991
       74.0000000000        1.2151193326        0.1904084381
       75.0000000000        1.4087459243        0.1869607018
       76.0000000000        1.5656282148        0.1155394672
       77.0000000000        1.6280857632        0.0082347915
       78.0000000000        1.5991249166       -0.0532482690
       79.0000000000        1.5528844791       -0.0364569025
       80.0000000000        1.5481383960        0.0329536267
       81.0000000000        1.6269523940        0.1273965943
       82.0000000000        1.8064743969        0.2323772792
       83.0000000000        2.0895768164        0.3300649750
       84.0000000000        2.4503745653        0.3781713160
       85.0000000000        2.8095791220        0.3194971020
       86.0000000000        3.0549334221        0.1617523427
       87.0000000000        3.1332189596        0.0013868772
       88.0000000000        3.0688769976       -0.1290856577
       89.0000000000        2.8694174995       -0.2723457093
       90.0000000000        2.5320724500       -0.3906332977
       91.0000000000        2.1228456159       -0.4154426958
       92.0000000000        1.7297483223       -0.3623538883
       93.0000000000        1.4063398998       -0.2836664513
       94.0000000000        1.1603753863       -0.2103252459
       95.0000000000        0.9810047597       -0.1507479684
       96.0000000000        0.8546782611       -0.1037238709
       97.0000000000        0.7704573255       -0.0660529121
       98.0000000000        0.7200443116       -0.0361072466
       99.0000000000        0.6948893762       -0.0164194507
      100.0000000000        0.6813356864       -0.0142590239
      101.0000000000        0.6601399742       -0.0327799155
      102.0000000000        0.6145232819       -0.0575246108
      103.0000000000        0.5497987917       -0.0689246822
      104.0000000000        0.4819336657       -0.0649002755
      105.0000000000        0.4222180715       -0.0540825093
      106.0000000000        0.3738503289       -0.0428722159
      107.0000000000        0.3358245453       -0.0335461267
      108.0000000000        0.3060463898       -0.0263383724
      109.0000000000        0.2825666080       -0.0208735210
      110.0000000000        0.2638654077       -0.0167136533
      111.0000000000        0.2488239789       -0.0135030093
      112.0000000000        0.2366307590       -0.0109807767
      113.0000000000        0.2266952506       -0.0089618597
      114.0000000000        0.2185832550       -0.0073155331
      115.0000000000        0.2119712809       -0.0059487665
      116.0000000000        0.2066150995       -0.0047944541
      117.0000000000        0.2023280923       -0.0038033919
      118.0000000000        0.1989662367       -0.0029388554
      119.0000000000        0.1964175834       -0.0021729197
      120.0000000000        0.1945947963       -0.0014839357
      121.0000000000        0.1934298076       -0.0008547725
      122.0000000000        0.1928699559       -0.0002715736
      123.0000000000        0.1959788599        0.0003159667
      124.0000000000        0.1965588867        0.0008407175
      125.0000000000        0.1976549359        0.0013493654
      126.0000000000        0.1992548539        0.0018497078
      127.0000000000        0.2013540362        0.0023490998
      128.0000000000        0.2058441147        0.0028783771
      129.0000000000        0.2089809219        0.0033981531
      130.0000000000        0.2126475963        0.0039394837
      131.0000000000        0.2168699705        0.0045111007
      132.0000000000        0.2216832156        0.0051230328
      133.0000000000        0.2271334113        0.0057871772
      134.0000000000        0.2332797774        0.0065180654
      135.0000000000        0.2401978081        0.0073339221
      136.0000000000        0.2479836697        0.0082581644
      137.0000000000        0.2567604086        0.0093215669
      138.0000000000        0.2666867924        0.0105654345
      139.0000000000        0.2779700324        0.0120462921
      140.0000000000        0.2908842437        0.0138428075
      141.0000000000        0.3057973020        0.0160658003
      142.0000000000        0.3232094999        0.0188718125
      143.0000000000        0.3438069435        0.0224782355
      144.0000000000        0.3685268199        0.0271684301
      145.0000000000        0.3986074500        0.0332443720
      146.0000000000        0.4355175707        0.0407997306
      147.0000000000        0.4804555285        0.0490242045
      148.0000000000        0.5327876747        0.0547893597
      149.0000000000        0.5871648794        0.0519901800
      150.0000000000        0.6325730182        0.0371179812
      151.0000000000        0.6603175968        0.0192413527
      152.0000000000        0.6763885873        0.0126542874
      153.0000000000        0.6917223500        0.0199133211
      154.0000000000        0.7189522829        0.0354793978
      155.0000000000        0.7640735206        0.0553462936
      156.0000000000        0.8308697940        0.0789557959
      157.0000000000        0.9237459266        0.1078840197
      158.0000000000        1.0493083888        0.1448406389
      159.0000000000        1.2171491888        0.1929285508
      160.0000000000        1.4394934634        0.2537954148
      161.0000000000        1.7274013761        0.3220181498
      162.0000000000        2.0781034473        0.3728229385
      163.0000000000        2.4494428358        0.3527776349
      164.0000000000        2.7447969465        0.2204088916
      165.0000000000        2.8741865874        0.0431523006
      166.0000000000        2.8638319047       -0.0403659181
      167.0000000000        2.8396831608        0.0112997552
      168.0000000000        2.9129293492        0.1424106305
      169.0000000000        3.1271195058        0.2809759782
      170.0000000000        3.4543768525        0.3417590035
      171.0000000000        3.7550137183        0.2235900836
      172.0000000000        3.8381930678       -0.0761939393
      173.0000000000        3.6061770555       -0.3663703787
      174.0000000000        3.1678526275       -0.4776947326
      175.0000000000        2.7020725022       -0.4369939722
      176.0000000000        2.3120695944       -0.3398829530
      177.0000000000        2.0218391618       -0.2428367972
      178.0000000000        1.8204630970       -0.1630816107
      179.0000000000        1.6897614103       -0.1009505676
      180.0000000000        1.6140831049       -0.0522601757
      181.0000000000        1.5822373090       -0.0126101751
      182.0000000000        1.5870655942        0.0216229067
      183.0000000000        1.6246427768        0.0533192802
      184.0000000000        1.6936638770        0.0848890880
      185.0000000000        1.7951229662        0.1185686754
      186.0000000000        1.9322832096        0.1567077566
      187.0000000000        2.1109370344        0.2020671288
      188.0000000000        2.3399800089        0.2581510137
      189.0000000000        2.6323324195        0.3295611994
      190.0000000000        3.0061732938        0.4222200145
      191.0000000000        3.4863833153        0.5428990464
      192.0000000000        4.1032707829        0.6965840029
      193.0000000000        4.8895843203        0.8799632979
      194.0000000000        5.8675550732        1.0765293437
      195.0000000000        7.0442624394        1.2804773840
      196.0000000000        8.4492659080        1.5477477100
      197.0000000000       10.1843493841        1.9425992712
      198.0000000000       12.3466163040        2.3590705632
      199.0000000000       14.7885865283        2.4230965716
      200.0000000000       16.9146901136        1.6728416445
      201.0000000000       17.8919856794        0.2343971870
      202.0000000000       17.4864876000       -0.9090394452
      203.0000000000       16.4075338966       -1.0906358089
      204.0000000000       15.5303095487       -0.6062521192
      205.0000000000       15.1979407749       -0.1088128123
      206.0000000000       15.1263703698       -0.1553379935
      207.0000000000       14.6609744387       -0.8511843559
      208.0000000000       13.4108567228       -1.5994057675
      209.0000000000       11.6532521842       -1.8137689321
      210.0000000000        9.9460955651       -1.5454665433
      211.0000000000        8.6169501705       -1.1069410346
      212.0000000000        7.7134611255       -0.7217434218
      213.0000000000        7.1116690963       -0.5193753779
      214.0000000000        6.6002585930       -0.5336795191
      215.0000000000        6.0155314817       -0.6323305818
      216.0000000000        5.3680576428       -0.6402258775
      217.0000000000        4.7750732622       -0.5311101864
      218.0000000000        4.3231974026       -0.3687953630
      219.0000000000        4.0397542165       -0.1984275853
      220.0000000000        3.9253355565       -0.0305503114
      221.0000000000        3.9799011103        0.1411162824
      222.0000000000        4.2115230223        0.3241867539
      223.0000000000        4.6298920142        0.5106481345
      224.0000000000        5.2170943150        0.6471783821
      225.0000000000        5.8663066313        0.6092344396
      226.0000000000        6.3369210598        0.2847914571
      227.0000000000        6.3821578154       -0.1917172904
      228.0000000000        6.0161823295       -0.4898987777
      229.0000000000        5.5047267981       -0.4893559322
      230.0000000000        5.0984891198       -0.3042893598
      231.0000000000        4.9180880938       -0.0506424127
      232.0000000000        5.0050169236        0.2277457992
      233.0000000000        5.3804732374        0.5267067371
      234.0000000000        6.0632322839        0.8384577569
      235.0000000000        7.0437835115        1.1062292334
      236.0000000000        8.2141347329        1.1870883047
      237.0000000000        9.2896940947        0.8886876012
      238.0000000000        9.8372954424        0.1436166197
      239.0000000000        9.5261709464       -0.7435378848
      240.0000000000        8.4783302625       -1.2634021934
      241.0000000000        7.1687470581       -1.2882593963
      242.0000000000        5.9901086357       -1.0457866902
      243.0000000000        5.0957424738       -0.7429454902
      244.0000000000        4.4961446098       -0.4620532301
      245.0000000000        4.1604584619       -0.2140771409
      246.0000000000        4.0594270231        0.0113076185
      247.0000000000        4.1754591961        0.2160278084
      248.0000000000        4.4736490270        0.3649287085
      249.0000000000        4.8566409728        0.3619618055
      250.0000000000        5.1136089821        0.1123791127
      251.0000000000        5.0287574958       -0.2840969099
      252.0000000000        4.5901977936       -0.5537827061
      253.0000000000        4.0032168717       -0.5851927817
      254.0000000000        3.4682393350       -0.4708015223
      255.0000000000        3.0749819731       -0.3141158181
      256.0000000000        2.8378832593       -0.1628899520
      257.0000000000        2.7431898876       -0.0369701899
      258.0000000000        2.7491045192        0.0366881613
      259.0000000000        2.7844907349        0.0151414359
      260.0000000000        2.7442664414       -0.1076359962
      261.0000000000        2.5653819689       -0.2417552717
      262.0000000000        2.2892571563       -0.2940848091
      263.0000000000        2.0033410164       -0.2687849206
      264.0000000000        1.7616378980       -0.2127943429
      265.0000000000        1.5777600916       -0.1560714292
      266.0000000000        1.4464767348       -0.1081215393
      267.0000000000        1.3584949128       -0.0691667385
      268.0000000000        1.3059500233       -0.0367885697
      269.0000000000        1.2836290118       -0.0082868108
      270.0000000000        1.2889044957        0.0187929443
      271.0000000000        1.3215007574        0.0467326116
      272.0000000000        1.3834383504        0.0778911298
      273.0000000000        1.4792658112        0.1150237366
      274.0000000000        1.6166420079        0.1616657532
      275.0000000000        1.8073354143        0.2225775163
      276.0000000000        2.0686594226        0.3041306345
      277.0000000000        2.4250693776        0.4140847930
      278.0000000000        2.9145085235        0.5589769830
      279.0000000000        3.5592505352        0.7336656130
      280.0000000000        4.3783936668        0.8952993173
      281.0000000000        5.3067545347        0.9252730832
      282.0000000000        6.1304821674        0.6665383764
      283.0000000000        6.5527733986        0.1604333729
      284.0000000000        6.4863349361       -0.2464520043
      285.0000000000        6.1706584577       -0.3359762225
      286.0000000000        5.8705183783       -0.2603298569
      287.0000000000        5.6156519177       -0.2812973158
      288.0000000000        5.2441220641       -0.4828458460
      289.0000000000        4.6489076046       -0.6884161034
      290.0000000000        3.9246911211       -0.7301959934
      291.0000000000        3.2340660786       -0.6369821353
      292.0000000000        2.6638375326       -0.5025869583
      293.0000000000        2.2245677525       -0.3798513137
      294.0000000000        1.8954037136       -0.2828342625
      295.0000000000        1.6509299689       -0.2096307638
      296.0000000000        1.4700994798       -0.1545771320
      297.0000000000        1.3375202710       -0.1123313452
      298.0000000000        1.2425744628       -0.0787070146
      299.0000000000        1.1782957293       -0.0505368968
      300.0000000000        1.1405143976       -0.0253372236
      301.0000000000        1.1273418809       -0.0009775510
      302.0000000000        1.1389683253        0.0246166659
      303.0000000000        1.1777467478        0.0537414950
      304.0000000000        1.2485420313        0.0891585920
      305.0000000000        1.3592592203        0.1341659139
      306.0000000000        1.5211616959        0.1919569674
      307.0000000000        1.7475982954        0.2626716984
      308.0000000000        2.0472455110        0.3346482637
      309.0000000000        2.4043794728        0.3676620896
      310.0000000000        2.7450271266        0.2889854752
      311.0000000000        2.9323643639        0.0668718423
      312.0000000000        2.8688408799       -0.1829133182
      313.0000000000        2.6103345583       -0.3076624546
      314.0000000000        2.2994063984       -0.2974226193
      315.0000000000        2.0359636301       -0.2246000647
      316.0000000000        1.8533929260       -0.1410119525
      317.0000000000        1.7514041809       -0.0645071144
      318.0000000000        1.7216649055        0.0040167747
      319.0000000000        1.7583596826        0.0693501976
