# IR Spectrum
# X-Axis:  Frequency (cm-1)
# Y-Axis:  Epsilon
#                  X                   Y               DY/DX
        0.0000000000        0.0196136675        0.0006879926
        1.0000000000        0.0203222308        0.0007297264
        2.0000000000        0.0210743744        0.0007752247
        3.0000000000        0.0218740888        0.0008249514
        4.0000000000        0.0227258648        0.0008794441
        5.0000000000        0.0236347732        0.0009393286
        6.0000000000        0.0246065617        0.0010053364
        7.0000000000        0.0268928961        0.0010938983
        8.0000000000        0.0280267234        0.0011751849
        9.0000000000        0.0292463348        0.0012656861
       10.0000000000        0.0317128820        0.0013812843
       11.0000000000        0.0331499665        0.0014951148
       12.0000000000        0.0347079423        0.0016234529
       13.0000000000        0.0364025583        0.0017688685
       14.0000000000        0.0382524174        0.0019345236
       15.0000000000        0.0402796493        0.0021243426
       16.0000000000        0.0425107819        0.0023432421
       17.0000000000        0.0449778816        0.0025974431
       18.0000000000        0.0492671676        0.0029143276
       19.0000000000        0.0523522196        0.0032657149
       20.0000000000        0.0558209022        0.0036841619
       21.0000000000        0.0597488011        0.0041875858
       22.0000000000        0.0642323439        0.0048001090
       23.0000000000        0.0706963456        0.0055709534
       24.0000000000        0.0767205814        0.0065134468
       25.0000000000        0.0838067683        0.0077073865
       26.0000000000        0.0922487278        0.0092426439
       27.0000000000        0.1024472543        0.0112450243
       28.0000000000        0.1149507671        0.0138848273
       29.0000000000        0.1304987741        0.0173698317
       30.0000000000        0.1500337053        0.0218769571
       31.0000000000        0.1745698966        0.0273087598
       32.0000000000        0.2046645466        0.0327278929
       33.0000000000        0.2392638853        0.0358531002
       34.0000000000        0.2749124671        0.0348023572
       35.0000000000        0.3085228284        0.0329047287
       36.0000000000        0.3429747686        0.0375515225
       37.0000000000        0.3867399361        0.0512965141
       38.0000000000        0.4472083431        0.0698285174
       39.0000000000        0.5250903706        0.0843062706
       40.0000000000        0.6178821943        0.0829476212
       41.0000000000        0.6902818032        0.0579418664
       42.0000000000        0.7279997020        0.0162923086
       43.0000000000        0.7251839607       -0.0184620758
       44.0000000000        0.7004034584       -0.0263837062
       45.0000000000        0.6789219730       -0.0153917063
       46.0000000000        0.6674396756       -0.0106497538
       47.0000000000        0.6561300916       -0.0284896756
       48.0000000000        0.6130836974       -0.0570297053
       49.0000000000        0.5472293910       -0.0710138945
       50.0000000000        0.4778357948       -0.0652017955
       51.0000000000        0.4199525781       -0.0498667620
       52.0000000000        0.3784072103       -0.0334191428
       53.0000000000        0.3531862376       -0.0188455361
       54.0000000000        0.3407606798       -0.0062821378
       55.0000000000        0.3402314742        0.0051154294
       56.0000000000        0.3509575967        0.0164135031
       57.0000000000        0.3734092697        0.0287689710
       58.0000000000        0.4092822150        0.0434932419
       59.0000000000        0.4617030841        0.0621482176
       60.0000000000        0.5354803192        0.0865001141
       61.0000000000        0.6370748975        0.1178888782
       62.0000000000        0.7732110500        0.1548609074
       63.0000000000        0.9490976517        0.1871541034
       64.0000000000        1.1406009620        0.1872832134
       65.0000000000        1.3008537562        0.1205673934
       66.0000000000        1.3622427428       -0.0016928060
       67.0000000000        1.3046780866       -0.1037905509
       68.0000000000        1.1771203317       -0.1413515480
       69.0000000000        1.0354267859       -0.1383587729
       70.0000000000        0.9044351423       -0.1223236358
       71.0000000000        0.7932968019       -0.0987569518
       72.0000000000        0.7086788601       -0.0700287313
       73.0000000000        0.6533456810       -0.0408735905
       74.0000000000        0.6315346625       -0.0136136998
       75.0000000000        0.6308445224        0.0121297655
       76.0000000000        0.6559652041        0.0384055921
       77.0000000000        0.7092773467        0.0678580947
       78.0000000000        0.7943156821        0.1035251158
       79.0000000000        0.9194580602        0.1485473041
       80.0000000000        1.0951457493        0.2045873165
       81.0000000000        1.3308991155        0.2668751344
       82.0000000000        1.6241296051        0.3139606866
       83.0000000000        1.9392507642        0.3025832381
       84.0000000000        2.1994802442        0.2050087646
       85.0000000000        2.3365493545        0.0700644881
       86.0000000000        2.3491772488       -0.0400834776
       87.0000000000        2.2587478986       -0.1424110411
       88.0000000000        2.0642114810       -0.2422430679
       89.0000000000        1.7950752942       -0.2859552097
       90.0000000000        1.5182114626       -0.2581816221
       91.0000000000        1.2908166770       -0.1937111892
       92.0000000000        1.1323327683       -0.1239691822
       93.0000000000        1.0396624107       -0.0637528703
       94.0000000000        0.9982241470       -0.0235719450
       95.0000000000        0.9809396257       -0.0179097021
       96.0000000000        0.9488373074       -0.0515729574
       97.0000000000        0.8739325586       -0.0964453289
       98.0000000000        0.7646417287       -0.1166857220
       99.0000000000        0.6500010154       -0.1092220820
      100.0000000000        0.5500648540       -0.0899020471
      101.0000000000        0.4702519804       -0.0701513504
      102.0000000000        0.4091011865       -0.0539227236
      103.0000000000        0.3616544443       -0.0415654075
      104.0000000000        0.3249223453       -0.0323516677
      105.0000000000        0.2961756008       -0.0254705227
      106.0000000000        0.2734228613       -0.0202707609
      107.0000000000        0.2552331156       -0.0162785430
      108.0000000000        0.2405756711       -0.0131599259
      109.0000000000        0.2287008374       -0.0106808489
      110.0000000000        0.2190563468       -0.0086761977
      111.0000000000        0.2112299535       -0.0070280753
      112.0000000000        0.2049100794       -0.0056510414
      113.0000000000        0.1998586571       -0.0044821664
      114.0000000000        0.1958921982       -0.0034743041
      115.0000000000        0.1928684522       -0.0025914947
      116.0000000000        0.1906769078       -0.0018057775
      117.0000000000        0.1892319814       -0.0010949436
      118.0000000000        0.1884681181       -0.0004409137
      119.0000000000        0.1883362922        0.0001714646
      120.0000000000        0.1888015617        0.0007553448
      121.0000000000        0.1898414588        0.0013226369
      122.0000000000        0.1945928103        0.0019239982
      123.0000000000        0.1968002599        0.0024929009
      124.0000000000        0.1995846810        0.0030800605
      125.0000000000        0.2029709852        0.0036991161
      126.0000000000        0.2088404765        0.0043893642
      127.0000000000        0.2135910389        0.0051250609
      128.0000000000        0.2191218450        0.0059547793
      129.0000000000        0.2255432908        0.0069129937
      130.0000000000        0.2330061866        0.0080468871
      131.0000000000        0.2417173265        0.0094224792
      132.0000000000        0.2519625727        0.0111337008
      133.0000000000        0.2641409178        0.0133154183
      134.0000000000        0.2788136757        0.0161604774
      135.0000000000        0.2967712144        0.0199361594
      136.0000000000        0.3191082283        0.0249784872
      137.0000000000        0.3472552977        0.0315902945
      138.0000000000        0.3827820808        0.0396342977
      139.0000000000        0.4264728220        0.0474048695
      140.0000000000        0.4758215913        0.0497197299
      141.0000000000        0.5213043354        0.0384155600
      142.0000000000        0.5474896538        0.0123335546
      143.0000000000        0.5461333863       -0.0132823118
      144.0000000000        0.5262607817       -0.0235994634
      145.0000000000        0.5035593576       -0.0202266246
      146.0000000000        0.4876104908       -0.0112965387
      147.0000000000        0.4811115918       -0.0018123928
      148.0000000000        0.4836325127        0.0066587428
      149.0000000000        0.4940775944        0.0140875725
      150.0000000000        0.5115990963        0.0208918777
      151.0000000000        0.5358146292        0.0275551634
      152.0000000000        0.5668182245        0.0345447939
      153.0000000000        0.6051686320        0.0423292704
      154.0000000000        0.6519131861        0.0514267375
      155.0000000000        0.7100729517        0.0624870111
      156.0000000000        0.7791960109        0.0763051848
      157.0000000000        0.8639839537        0.0940407168
      158.0000000000        0.9691132256        0.1173060637
      159.0000000000        1.1011926083        0.1483913099
      160.0000000000        1.2695526604        0.1904802840
      161.0000000000        1.4871823915        0.2476671244
      162.0000000000        1.7713178160        0.3240446497
      163.0000000000        2.1418884846        0.4198280247
      164.0000000000        2.6130197485        0.5206351255
      165.0000000000        3.1698408239        0.5802456632
      166.0000000000        3.7353023661        0.5270194849
      167.0000000000        4.1790998208        0.3439857614
      168.0000000000        4.4078370284        0.1130681836
      169.0000000000        4.4104485350       -0.1032645554
      170.0000000000        4.2197559115       -0.2619222361
      171.0000000000        3.9316439214       -0.2888355711
      172.0000000000        3.6874320530       -0.1821533864
      173.0000000000        3.5953547823       -0.0068347307
      174.0000000000        3.6815481755        0.1760534053
      175.0000000000        3.9306136593        0.3073563291
      176.0000000000        4.2524443186        0.3082232898
      177.0000000000        4.4904515878        0.1459429536
      178.0000000000        4.5320060065       -0.0512051969
      179.0000000000        4.4355468307       -0.1134458140
      180.0000000000        4.3495191583       -0.0469483346
      181.0000000000        4.3388743271        0.0118481440
      182.0000000000        4.3293461585       -0.0556524993
      183.0000000000        4.1924331032       -0.2229946234
      184.0000000000        3.9024400874       -0.3369001861
      185.0000000000        3.5627772623       -0.3231077100
      186.0000000000        3.2830742943       -0.2286332315
      187.0000000000        3.1126269321       -0.1114942888
      188.0000000000        3.0592123741        0.0037547133
      189.0000000000        3.1187525740        0.1151215848
      190.0000000000        3.2905132027        0.2297653484
      191.0000000000        3.5829414381        0.3584662163
      192.0000000000        4.0165683882        0.5146425503
      193.0000000000        4.6268680301        0.7148515532
      194.0000000000        5.4673865039        0.9783561217
      195.0000000000        6.6101892311        1.3211232165
      196.0000000000        8.1338466046        1.7325479349
      197.0000000000       10.0678569762        2.1138833805
      198.0000000000       12.2610108285        2.1874457780
      199.0000000000       14.2085474829        1.5733116288
      200.0000000000       15.1916921483        0.3452791069
      201.0000000000       14.9759878428       -0.6620136770
      202.0000000000       14.1588603292       -0.8310721553
      203.0000000000       13.5316590547       -0.3554530841
      204.0000000000       13.5002202985        0.2794642459
      205.0000000000       13.9869358674        0.6037562209
      206.0000000000       14.4682765418        0.2261814104
      207.0000000000       14.2293947987       -0.7521455915
      208.0000000000       13.0175522945       -1.5812301691
      209.0000000000       11.2903018062       -1.7674480284
      210.0000000000        9.6346839096       -1.5010688862
      211.0000000000        8.3201387871       -1.1397510836
      212.0000000000        7.3224450575       -0.8772569642
      213.0000000000        6.5319194609       -0.7123499966
      214.0000000000        5.8976754678       -0.5502215311
      215.0000000000        5.4460716185       -0.3464093915
      216.0000000000        5.2144832346       -0.1134284310
      217.0000000000        5.2246258909        0.1362395476
      218.0000000000        5.4918397334        0.4000695131
      219.0000000000        6.0237964265        0.6588830891
      220.0000000000        6.7814424181        0.8294337059
      221.0000000000        7.5942833201        0.7351667460
      222.0000000000        8.1168610275        0.2505221257
      223.0000000000        8.0405087546       -0.3891291825
      224.0000000000        7.4373231332       -0.7477098108
      225.0000000000        6.6775304117       -0.7188788713
      226.0000000000        6.0704118749       -0.4732416542
      227.0000000000        5.7528772115       -0.1565326811
      228.0000000000        5.7637063460        0.1808068086
      229.0000000000        6.1205791166        0.5362421248
      230.0000000000        6.8399526054        0.9010878833
      231.0000000000        7.9015167683        1.1975576087
      232.0000000000        9.1422235928        1.2119383786
      233.0000000000       10.1398369308        0.6829083078
      234.0000000000       10.3577888860       -0.2749220729
      235.0000000000        9.6493857931       -1.0671593457
      236.0000000000        8.3959978330       -1.3614881672
      237.0000000000        7.0409595388       -1.3111046894
      238.0000000000        5.8216614540       -1.1134493988
      239.0000000000        4.8285295405       -0.8711834710
      240.0000000000        4.0748429159       -0.6410547300
      241.0000000000        3.5346527302       -0.4454098975
      242.0000000000        3.1730363431       -0.2824426610
      243.0000000000        2.9626167691       -0.1409395210
      244.0000000000        2.8877838162       -0.0097936230
      245.0000000000        2.9400424886        0.1142607310
      246.0000000000        3.1075629957        0.2132541179
      247.0000000000        3.3398650239        0.2311611948
      248.0000000000        3.5185880435        0.0971689819
      249.0000000000        3.4922438029       -0.1579290075
      250.0000000000        3.2198920901       -0.3646587459
      251.0000000000        2.8155372370       -0.4195678099
      252.0000000000        2.4165292155       -0.3675712975
      253.0000000000        2.0912210648       -0.2815920938
      254.0000000000        1.8534596815       -0.1981647083
      255.0000000000        1.6922584269       -0.1261134081
      256.0000000000        1.5980995019       -0.0634159802
      257.0000000000        1.5633050931       -0.0062577765
      258.0000000000        1.5836358234        0.0456699335
      259.0000000000        1.6498848221        0.0827371766
      260.0000000000        1.7360004909        0.0803643852
      261.0000000000        1.7896613608        0.0170902906
      262.0000000000        1.7590147371       -0.0779240571
      263.0000000000        1.6461607681       -0.1379550162
      264.0000000000        1.5027432148       -0.1408140999
      265.0000000000        1.3753076377       -0.1111286244
      266.0000000000        1.2829827844       -0.0734095724
      267.0000000000        1.2276804702       -0.0378408742
      268.0000000000        1.2060231228       -0.0060164042
      269.0000000000        1.2148961549        0.0235753134
      270.0000000000        1.2532103157        0.0532839329
      271.0000000000        1.3223763224        0.0857413501
      272.0000000000        1.4266060870        0.1239620529
      273.0000000000        1.5734585764        0.1716976559
      274.0000000000        1.7748105849        0.2339189263
      275.0000000000        2.0483296140        0.3173046880
      276.0000000000        2.4192825068        0.4302945584
      277.0000000000        2.9216202796        0.5811670284
      278.0000000000        3.5945119003        0.7697621113
      279.0000000000        4.4638672678        0.9640368331
      280.0000000000        5.4907774229        1.0598151161
      281.0000000000        6.4983948296        0.8885245220
      282.0000000000        7.1673283534        0.4135652842
      283.0000000000        7.3131017560       -0.1012096582
      284.0000000000        7.0249504201       -0.4492789837
      285.0000000000        6.4418365314       -0.7110829546
      286.0000000000        5.6236075877       -0.9049044060
      287.0000000000        4.6894293523       -0.9324602244
      288.0000000000        3.8087289159       -0.8125702301
      289.0000000000        3.0801288378       -0.6434342828
      290.0000000000        2.5165553895       -0.4886340308
      291.0000000000        2.0916772887       -0.3667623153
      292.0000000000        1.7726346204       -0.2759471106
      293.0000000000        1.5317754166       -0.2091808064
      294.0000000000        1.3484990120       -0.1597922180
      295.0000000000        1.2081224412       -0.1226581160
      296.0000000000        1.1003355737       -0.0941013900
      297.0000000000        1.0179344577       -0.0715246991
      298.0000000000        0.9559161505       -0.0530741214
      299.0000000000        0.9108689428       -0.0373853926
      300.0000000000        0.8805791803       -0.0234008156
      301.0000000000        0.8637955156       -0.0102336435
      302.0000000000        0.8599615158        0.0029433690
      303.0000000000        0.8698173018        0.0169920404
      304.0000000000        0.8945724660        0.0329306666
      305.0000000000        0.9367372853        0.0520601470
      306.0000000000        1.0003328489        0.0761309457
      307.0000000000        1.0914287592        0.1075143603
      308.0000000000        1.2188047523        0.1492356230
      309.0000000000        1.3943866854        0.2043443024
      310.0000000000        1.6321448487        0.2730717600
      311.0000000000        1.9416873118        0.3443367900
      312.0000000000        2.3091272471        0.3790961844
      313.0000000000        2.6632902203        0.3048448161
      314.0000000000        2.8684360103        0.0855217731
      315.0000000000        2.8221491109       -0.1681817573
      316.0000000000        2.5748762145       -0.2997756138
      317.0000000000        2.2695468666       -0.2934485983
      318.0000000000        2.0095802010       -0.2212112014
      319.0000000000        1.8308493857       -0.1365604682
