# IR Spectrum
# X-Axis:  Frequency (cm-1)
# Y-Axis:  Epsilon
#                  X                   Y               DY/DX
        0.0000000000        0.0236907209        0.0008616276
        1.0000000000        0.0245813884        0.0009206816
        2.0000000000        0.0255341676        0.0009859906
        3.0000000000        0.0265557579        0.0010584701
        4.0000000000        0.0276538584        0.0011392087
        5.0000000000        0.0288373596        0.0012295088
        6.0000000000        0.0328494512        0.0013651062
        7.0000000000        0.0342709348        0.0014802144
        8.0000000000        0.0358149967        0.0016106904
        9.0000000000        0.0374983832        0.0017593918
       10.0000000000        0.0410938099        0.0019518500
       11.0000000000        0.0462245108        0.0021875216
       12.0000000000        0.0485239507        0.0024172139
       13.0000000000        0.0510719348        0.0026859643
       14.0000000000        0.0539119666        0.0030030711
       15.0000000000        0.0570982098        0.0033807070
       16.0000000000        0.0606988773        0.0038350159
       17.0000000000        0.0648009484        0.0043877041
       18.0000000000        0.0695168216        0.0050683721
       19.0000000000        0.0780510701        0.0059562011
       20.0000000000        0.0845237634        0.0070328045
       21.0000000000        0.0922188109        0.0084169304
       22.0000000000        0.1014980658        0.0102239419
       23.0000000000        0.1128610138        0.0126158366
       24.0000000000        0.1269966160        0.0158099130
       25.0000000000        0.1448334063        0.0200599235
       26.0000000000        0.1675298049        0.0255361419
       27.0000000000        0.1962257524        0.0319287200
       28.0000000000        0.2311671874        0.0375827794
       29.0000000000        0.2699447586        0.0389038138
       30.0000000000        0.3065959379        0.0333982383
       31.0000000000        0.3361741077        0.0264037392
       32.0000000000        0.3622747307        0.0276690786
       33.0000000000        0.3949150117        0.0388204317
       34.0000000000        0.4407250173        0.0522699241
       35.0000000000        0.4963532477        0.0564978560
       36.0000000000        0.5479532503        0.0440877817
       37.0000000000        0.5819317173        0.0242324105
       38.0000000000        0.5995238261        0.0128829166
       39.0000000000        0.6101468415        0.0086373338
       40.0000000000        0.6164746319        0.0041052805
       41.0000000000        0.6286072489        0.0061227545
       42.0000000000        0.6413543757        0.0212497172
       43.0000000000        0.6721642392        0.0391206678
       44.0000000000        0.7129256011        0.0371072504
       45.0000000000        0.7339604053       -0.0008276570
       46.0000000000        0.7050596124       -0.0564305805
       47.0000000000        0.6344990822       -0.0904538213
       48.0000000000        0.5410199005       -0.0920738787
       49.0000000000        0.4560406990       -0.0764606257
       50.0000000000        0.3890474647       -0.0576887262
       51.0000000000        0.3397593105       -0.0414791795
       52.0000000000        0.3048896449       -0.0288236894
       53.0000000000        0.2811174696       -0.0191461687
       54.0000000000        0.2658857726       -0.0116079372
       55.0000000000        0.2574336371       -0.0054790502
       56.0000000000        0.2546504089       -0.0001858772
       57.0000000000        0.2569362751        0.0047283947
       58.0000000000        0.2641123577        0.0096578080
       59.0000000000        0.2763844177        0.0149861731
       60.0000000000        0.2943584350        0.0211389440
       61.0000000000        0.3191095367        0.0286386354
       62.0000000000        0.3523084820        0.0381635517
       63.0000000000        0.4004967492        0.0506410172
       64.0000000000        0.4589422258        0.0669853519
       65.0000000000        0.5360397180        0.0880024398
       66.0000000000        0.6363065653        0.1129765544
       67.0000000000        0.7619717268        0.1377592521
       68.0000000000        0.9095083103        0.1558542001
       69.0000000000        1.0716963907        0.1685380853
       70.0000000000        1.2487530612        0.1869664069
       71.0000000000        1.4457823090        0.2009691919
       72.0000000000        1.6334665347        0.1602266411
       73.0000000000        1.7340772601        0.0269652400
       74.0000000000        1.6757300577       -0.1391900995
       75.0000000000        1.4810920608       -0.2330983723
       76.0000000000        1.2406297038       -0.2359752663
       77.0000000000        1.0239449529       -0.1938177029
       78.0000000000        0.8552415426       -0.1440747532
       79.0000000000        0.7334302167       -0.1010444884
       80.0000000000        0.6503934300       -0.0667624852
       81.0000000000        0.5978242602       -0.0392877005
       82.0000000000        0.5704462955       -0.0159343224
       83.0000000000        0.5654423043        0.0058736810
       84.0000000000        0.5824865175        0.0285583415
       85.0000000000        0.6236289996        0.0544425299
       86.0000000000        0.6930791320        0.0853881463
       87.0000000000        0.7960467937        0.1210385983
       88.0000000000        0.9343853007        0.1538393540
       89.0000000000        1.0953231321        0.1608218504
       90.0000000000        1.2353806286        0.1068495342
       91.0000000000        1.2868731784       -0.0104947418
       92.0000000000        1.2173005257       -0.1232515002
       93.0000000000        1.0647456960       -0.1697495882
       94.0000000000        0.8969788273       -0.1594127062
       95.0000000000        0.7540466630       -0.1274362287
       96.0000000000        0.6432404132       -0.0949413746
       97.0000000000        0.5620680339       -0.0685449200
       98.0000000000        0.5039867393       -0.0485947459
       99.0000000000        0.4631811743       -0.0337378652
      100.0000000000        0.4352979171       -0.0225314155
      101.0000000000        0.4172864290       -0.0138312079
      102.0000000000        0.4070813684       -0.0068011251
      103.0000000000        0.4033303335       -0.0008377268
      104.0000000000        0.4052003447        0.0045057920
      105.0000000000        0.4130167609        0.0095889378
      106.0000000000        0.4251425899        0.0146909298
      107.0000000000        0.4425018910        0.0201032537
      108.0000000000        0.4655512947        0.0261237717
      109.0000000000        0.4950667575        0.0330991578
      110.0000000000        0.5322114073        0.0414645570
      111.0000000000        0.5786489535        0.0517962416
      112.0000000000        0.6367195190        0.0648852813
      113.0000000000        0.7097034828        0.0818413756
      114.0000000000        0.8022069424        0.1042321831
      115.0000000000        0.9206986958        0.1342396834
      116.0000000000        1.0741744221        0.1747260272
      117.0000000000        1.2747046318        0.2288345771
      118.0000000000        1.5369809231        0.2981609925
      119.0000000000        1.8747265241        0.3781713418
      120.0000000000        2.2918206087        0.4535256889
      121.0000000000        2.7746077534        0.5084191795
      122.0000000000        3.3041363535        0.5494907935
      123.0000000000        3.8661085255        0.5638367784
      124.0000000000        4.3855084495        0.4384957212
      125.0000000000        4.6581039877        0.0686751972
      126.0000000000        4.4900431449       -0.3932693853
      127.0000000000        3.9436945969       -0.6588032226
      128.0000000000        3.2620359369       -0.6712989120
      129.0000000000        2.6427723169       -0.5571294344
      130.0000000000        2.1539930570       -0.4219911676
      131.0000000000        1.7912974467       -0.3083133610
      132.0000000000        1.5269328844       -0.2256264390
      133.0000000000        1.3303501062       -0.1717734316
      134.0000000000        1.1768456441       -0.1374263399
      135.0000000000        1.0545802997       -0.1109159095
      136.0000000000        0.9558191363       -0.0869756638
      137.0000000000        0.8797024861       -0.0658094281
      138.0000000000        0.8230222618       -0.0481403726
      139.0000000000        0.7823199876       -0.0337624137
      140.0000000000        0.7546230857       -0.0220075694
      141.0000000000        0.7376659794       -0.0121735086
      142.0000000000        0.7298342811       -0.0036689953
      143.0000000000        0.7300422579        0.0039751879
      144.0000000000        0.7376236350        0.0111342770
      145.0000000000        0.7522540707        0.0181220648
      146.0000000000        0.7739044041        0.0252195049
      147.0000000000        0.8028203850        0.0326993432
      148.0000000000        0.8395259321        0.0408489732
      149.0000000000        0.8848494913        0.0499942658
      150.0000000000        0.9399759923        0.0605275042
      151.0000000000        1.0065303646        0.0729433073
      152.0000000000        1.0867030899        0.0878878223
      153.0000000000        1.1849511528        0.1062477911
      154.0000000000        1.3022206418        0.1291774226
      155.0000000000        1.4453834527        0.1583622989
      156.0000000000        1.6218075616        0.1961676516
      157.0000000000        1.8417044583        0.2459781355
      158.0000000000        2.1193551834        0.3126271882
      159.0000000000        2.4747938660        0.4028527164
      160.0000000000        2.9358112424        0.5253556945
      161.0000000000        3.5392789164        0.6889780368
      162.0000000000        4.3281502407        0.8948522759
      163.0000000000        5.3343812730        1.1146755721
      164.0000000000        6.5322721865        1.2564532525
      165.0000000000        7.7743072020        1.1839004934
      166.0000000000        8.8268711609        0.9030117611
      167.0000000000        9.5954248693        0.6615541258
      168.0000000000       10.2029342388        0.5640598102
      169.0000000000       10.6905730572        0.3699857347
      170.0000000000       10.8412727286       -0.1148003465
      171.0000000000       10.4225782314       -0.7218364498
      172.0000000000        9.4916517900       -1.0717007284
      173.0000000000        8.4223101398       -1.0043413892
      174.0000000000        7.5725507652       -0.6684130360
      175.0000000000        7.1102657228       -0.2554033690
      176.0000000000        7.0439061509        0.1036175361
      177.0000000000        7.2539567132        0.2703505137
      178.0000000000        7.4675255479        0.0924838944
      179.0000000000        7.3354182984       -0.3821838759
      180.0000000000        6.7238143172       -0.7999156161
      181.0000000000        5.8413561264       -0.9136596007
      182.0000000000        4.9730553937       -0.7993468946
      183.0000000000        4.2659497467       -0.6120578395
      184.0000000000        3.7451745407       -0.4340472656
      185.0000000000        3.3872589360       -0.2871042883
      186.0000000000        3.1614107246       -0.1686696117
      187.0000000000        3.0433114387       -0.0700696421
      188.0000000000        3.0176277921        0.0175655592
      189.0000000000        3.0774594831        0.1022366722
      190.0000000000        3.2236395940        0.1915394799
      191.0000000000        3.4646879152        0.2935809166
      192.0000000000        3.8183034781        0.4180898885
      193.0000000000        4.3126384376        0.5776786131
      194.0000000000        4.9908578899        0.7890059856
      195.0000000000        5.9147433409        1.0726116239
      196.0000000000        7.1666382169        1.4472190881
      197.0000000000        8.8382039011        1.9067209904
      198.0000000000       10.9796759416        2.3572748214
      199.0000000000       13.4586583983        2.5167445396
      200.0000000000       15.7718534381        1.9659782864
      201.0000000000       17.1440183464        0.7130624738
      202.0000000000       17.2495305109       -0.3926806773
      203.0000000000       16.6454562840       -0.6793014424
      204.0000000000       16.0598958443       -0.4721722045
      205.0000000000       15.6151664079       -0.5084791372
      206.0000000000       14.8411720342       -1.1167280137
      207.0000000000       13.3437965051       -1.8334028318
      208.0000000000       11.3434524940       -2.0764153613
      209.0000000000        9.3505221583       -1.8565151888
      210.0000000000        7.6868124108       -1.4622364606
      211.0000000000        6.4210359231       -1.0785039281
      212.0000000000        5.5071308422       -0.7610117220
      213.0000000000        4.8777830589       -0.5067641551
      214.0000000000        4.4790289671       -0.2962148510
      215.0000000000        4.2779418868       -0.1079541456
      216.0000000000        4.2623858027        0.0780414444
      217.0000000000        4.4392770477        0.2796235812
      218.0000000000        4.8308565678        0.5082182257
      219.0000000000        5.4615847254        0.7524264326
      220.0000000000        6.3174767589        0.9379263272
      221.0000000000        7.2582227065        0.8839699151
      222.0000000000        7.9389734816        0.4032473857
      223.0000000000        7.9681351692       -0.3515636387
      224.0000000000        7.3126497223       -0.8885542510
      225.0000000000        6.3429619612       -0.9846855408
      226.0000000000        5.4361089365       -0.8019744287
      227.0000000000        4.7641030027       -0.5402944467
      228.0000000000        4.3451776188       -0.3083863247
      229.0000000000        4.1151111602       -0.1726236175
      230.0000000000        3.9500639082       -0.1831129222
      231.0000000000        3.7096925978       -0.3066087305
      232.0000000000        3.3446820530       -0.4091246864
      233.0000000000        2.9265932997       -0.4106397849
      234.0000000000        2.5460334064       -0.3418161218
      235.0000000000        2.2480670134       -0.2538775681
      236.0000000000        2.0357731905       -0.1729100145
      237.0000000000        1.8967015304       -0.1085561711
      238.0000000000        1.8107073023       -0.0680786103
      239.0000000000        1.7507045675       -0.0564727221
      240.0000000000        1.6919771749       -0.0615607537
      241.0000000000        1.6310074091       -0.0570628268
      242.0000000000        1.5850821677       -0.0315232274
      243.0000000000        1.5730562282        0.0093750991
      244.0000000000        1.6069479933        0.0598397993
      245.0000000000        1.6958762639        0.1198488023
      246.0000000000        1.8510348725        0.1930314489
      247.0000000000        2.0875559477        0.2828548287
      248.0000000000        2.4212427996        0.3854633314
      249.0000000000        2.8558215619        0.4749171503
      250.0000000000        3.3474615522        0.4893056124
      251.0000000000        3.7870460194        0.3674130324
      252.0000000000        4.0471667520        0.1449308088
      253.0000000000        4.0760200762       -0.0841699290
      254.0000000000        3.8848096123       -0.2941262463
      255.0000000000        3.5071481622       -0.4444102427
      256.0000000000        3.0381865168       -0.4720592341
      257.0000000000        2.5970488769       -0.3989447570
      258.0000000000        2.2523914620       -0.2883555304
      259.0000000000        2.0199575806       -0.1779505069
      260.0000000000        1.8945781685       -0.0779168014
      261.0000000000        1.8620330130        0.0107208152
      262.0000000000        1.9099127370        0.0803381237
      263.0000000000        2.0076362321        0.1041365972
      264.0000000000        2.0901915229        0.0456509923
      265.0000000000        2.0748956931       -0.0815811078
      266.0000000000        1.9340688648       -0.1891032628
      267.0000000000        1.7238861857       -0.2183004267
      268.0000000000        1.5166514433       -0.1902760629
      269.0000000000        1.3491998604       -0.1438690104
      270.0000000000        1.2281386424       -0.0992901888
      271.0000000000        1.1481929267       -0.0618142722
      272.0000000000        1.1023630219       -0.0307399105
      273.0000000000        1.0853233507       -0.0038351865
      274.0000000000        1.0940850260        0.0212413657
      275.0000000000        1.1279362253        0.0467089591
      276.0000000000        1.1883798681        0.0748174787
      277.0000000000        1.2792983986        0.1081296928
      278.0000000000        1.4074393317        0.1498784464
      279.0000000000        1.5832917799        0.2043874025
      280.0000000000        1.8223852863        0.2774629966
      281.0000000000        2.1520924430        0.3763821502
      282.0000000000        2.5907925540        0.5075526365
      283.0000000000        3.1770161450        0.6684815219
      284.0000000000        3.9268642576        0.8242622902
      285.0000000000        4.7893752338        0.8686184070
      286.0000000000        5.5677677764        0.6359209363
      287.0000000000        5.9555956043        0.1085600471
      288.0000000000        5.7931108289       -0.3948613678
      289.0000000000        5.2797414287       -0.5712533820
      290.0000000000        4.7484849411       -0.4580216348
      291.0000000000        4.3994114189       -0.2356776870
      292.0000000000        4.2639534137       -0.0521133122
      293.0000000000        4.2428491876       -0.0236941682
      294.0000000000        4.1483152797       -0.1926291167
      295.0000000000        3.8359437833       -0.4240041304
      296.0000000000        3.3434607041       -0.5332294609
      297.0000000000        2.8182343529       -0.4995275780
      298.0000000000        2.3651034615       -0.4024861591
      299.0000000000        2.0142839053       -0.3010069015
      300.0000000000        1.7575314440       -0.2156151808
      301.0000000000        1.5771364830       -0.1478161079
      302.0000000000        1.4574505083       -0.0933497664
      303.0000000000        1.3876850178       -0.0471561176
      304.0000000000        1.3619430981       -0.0045592138
      305.0000000000        1.3788218959        0.0388055638
      306.0000000000        1.4412739334        0.0873375312
      307.0000000000        1.5567352522        0.1455656410
      308.0000000000        1.7368894309        0.2170968161
      309.0000000000        1.9949419596        0.3001265923
      310.0000000000        2.3349380126        0.3752576259
      311.0000000000        2.7246582813        0.3866824037
      312.0000000000        3.0595041557        0.2544431706
      313.0000000000        3.1852067469       -0.0158014254
      314.0000000000        3.0370756019       -0.2600614578
      315.0000000000        2.7199165418       -0.3466454199
      316.0000000000        2.3865932398       -0.3059935400
      317.0000000000        2.1233650468       -0.2174872073
      318.0000000000        1.9524172135       -0.1254952278
      319.0000000000        1.8693786874       -0.0420693422
