# IR Spectrum
# X-Axis:  Frequency (cm-1)
# Y-Axis:  Epsilon
#                  X                   Y               DY/DX
        0.0000000000        0.0199930765        0.0007039495
        1.0000000000        0.0207184655        0.0007474589
        2.0000000000        0.0214893308        0.0007949798
        3.0000000000        0.0223099295        0.0008470163
        4.0000000000        0.0231850626        0.0009041536
        5.0000000000        0.0241201632        0.0009670743
        6.0000000000        0.0251214043        0.0010365791
        7.0000000000        0.0272770670        0.0011271434
        8.0000000000        0.0284464044        0.0012130770
        9.0000000000        0.0297065457        0.0013089934
       10.0000000000        0.0310682475        0.0014164898
       11.0000000000        0.0325440234        0.0015374947
       12.0000000000        0.0357212478        0.0016940078
       13.0000000000        0.0374915377        0.0018499676
       14.0000000000        0.0394286034        0.0020282178
       15.0000000000        0.0415568681        0.0022331903
       16.0000000000        0.0439057356        0.0024704678
       17.0000000000        0.0465109187        0.0027471578
       18.0000000000        0.0494162096        0.0030724145
       19.0000000000        0.0526758736        0.0034581747
       20.0000000000        0.0563579256        0.0039202107
       21.0000000000        0.0605486816        0.0044796557
       22.0000000000        0.0653591622        0.0051652327
       23.0000000000        0.0709342151        0.0060165272
       24.0000000000        0.0774656166        0.0070887587
       25.0000000000        0.0852108998        0.0084595257
       26.0000000000        0.0945199581        0.0102375063
       27.0000000000        0.1058705382        0.0125707304
       28.0000000000        0.1199079697        0.0156436578
       29.0000000000        0.1374632689        0.0196272274
       30.0000000000        0.1594617528        0.0244871619
       31.0000000000        0.1865037141        0.0294973522
       32.0000000000        0.2178406712        0.0326295741
       33.0000000000        0.2503105480        0.0315515969
       34.0000000000        0.2800720504        0.0280950634
       35.0000000000        0.3081077328        0.0293347373
       36.0000000000        0.3418596476        0.0397015163
       37.0000000000        0.3901124318        0.0578102993
       38.0000000000        0.4587247007        0.0795445859
       39.0000000000        0.5479080962        0.0971423450
       40.0000000000        0.6469629414        0.0966107807
       41.0000000000        0.7311358561        0.0670331633
       42.0000000000        0.7801925601        0.0205297794
       43.0000000000        0.7798468197       -0.0185530500
       44.0000000000        0.7497034140       -0.0379076544
       45.0000000000        0.7123597885       -0.0326036422
       46.0000000000        0.6915484086       -0.0065133030
       47.0000000000        0.7047526415        0.0264416846
       48.0000000000        0.7433951811        0.0468842250
       49.0000000000        0.7896129302        0.0326974640
       50.0000000000        0.7977488683       -0.0212549248
       51.0000000000        0.7455022079       -0.0798734888
       52.0000000000        0.6496761007       -0.1051774014
       53.0000000000        0.5460353165       -0.0983573639
       54.0000000000        0.4571767007       -0.0785552964
       55.0000000000        0.3890073765       -0.0582140066
       56.0000000000        0.3433786164       -0.0413541645
       57.0000000000        0.3088316610       -0.0283071714
       58.0000000000        0.2857929578       -0.0181734364
       59.0000000000        0.2718324580       -0.0100020827
       60.0000000000        0.2674491994       -0.0029555049
       61.0000000000        0.2677807307        0.0035901165
       62.0000000000        0.2746667560        0.0102456957
       63.0000000000        0.2884810039        0.0175226548
       64.0000000000        0.3100308539        0.0257367240
       65.0000000000        0.3401732412        0.0345547368
       66.0000000000        0.3787352865        0.0420794691
       67.0000000000        0.4226560844        0.0446303762
       68.0000000000        0.4657913564        0.0409273213
       69.0000000000        0.5048638011        0.0384087721
       70.0000000000        0.5489231479        0.0472844823
       71.0000000000        0.6064558397        0.0699034128
       72.0000000000        0.6924797475        0.1037914754
       73.0000000000        0.8167998804        0.1458312606
       74.0000000000        0.9843947112        0.1881092158
       75.0000000000        1.1856039863        0.2073446378
       76.0000000000        1.3773952723        0.1620612972
       77.0000000000        1.4811313884        0.0345141743
       78.0000000000        1.4408483532       -0.1087835538
       79.0000000000        1.2900601081       -0.1807917160
       80.0000000000        1.1068171950       -0.1762071597
       81.0000000000        0.9527278071       -0.1363583491
       82.0000000000        0.8392855825       -0.0908708890
       83.0000000000        0.7693795653       -0.0499064671
       84.0000000000        0.7377348251       -0.0140660041
       85.0000000000        0.7403922278        0.0192305239
       86.0000000000        0.7764893514        0.0534177610
       87.0000000000        0.8487832941        0.0922830062
       88.0000000000        0.9639730008        0.1398965380
       89.0000000000        1.1327515428        0.1999437383
       90.0000000000        1.3682174476        0.2726973274
       91.0000000000        1.6787833163        0.3464534343
       92.0000000000        2.0491838709        0.3833094770
       93.0000000000        2.4147562654        0.3220772915
       94.0000000000        2.6540671508        0.1395642343
       95.0000000000        2.6760413621       -0.0955924517
       96.0000000000        2.4792912916       -0.2827541681
       97.0000000000        2.1488303620       -0.3578025253
       98.0000000000        1.7987482852       -0.3293655352
       99.0000000000        1.5060453632       -0.2524279535
      100.0000000000        1.2951766502       -0.1708297928
      101.0000000000        1.1584802958       -0.1067617605
      102.0000000000        1.0709452998       -0.0746654869
      103.0000000000        0.9967527294       -0.0808635529
      104.0000000000        0.9033062143       -0.1062776790
      105.0000000000        0.7888401521       -0.1188331033
      106.0000000000        0.6729865689       -0.1100463798
      107.0000000000        0.5721143604       -0.0910218768
      108.0000000000        0.4909906565       -0.0716256818
      109.0000000000        0.4277139050       -0.0555719295
      110.0000000000        0.3785988455       -0.0432334492
      111.0000000000        0.3402281370       -0.0339503926
      112.0000000000        0.3099371771       -0.0269554822
      113.0000000000        0.2857645155       -0.0216242311
      114.0000000000        0.2662885240       -0.0174979742
      115.0000000000        0.2504765889       -0.0142508040
      116.0000000000        0.2375713616       -0.0116524806
      117.0000000000        0.2270104119       -0.0095393089
      118.0000000000        0.2183706370       -0.0077934996
      119.0000000000        0.2113298686       -0.0063290514
      120.0000000000        0.2056401812       -0.0050821777
      121.0000000000        0.2011091401       -0.0040047926
      122.0000000000        0.1975864757       -0.0030600354
      123.0000000000        0.1949545088       -0.0022191542
      124.0000000000        0.1931212048       -0.0014593027
      125.0000000000        0.1920151042       -0.0007619529
      126.0000000000        0.1946340251       -0.0000734269
      127.0000000000        0.1948713971        0.0005435024
      128.0000000000        0.1957135446        0.0011379420
      129.0000000000        0.1971432864        0.0017203796
      130.0000000000        0.1991536177        0.0023007556
      131.0000000000        0.2038785639        0.0029155843
      132.0000000000        0.2070955192        0.0035222068
      133.0000000000        0.2109326268        0.0041578235
      134.0000000000        0.2154249505        0.0048348632
      135.0000000000        0.2206209802        0.0055678849
      136.0000000000        0.2265852125        0.0063745267
      137.0000000000        0.2334018438        0.0072768029
      138.0000000000        0.2411800045        0.0083029270
      139.0000000000        0.2500611865        0.0094899314
      140.0000000000        0.2602298543        0.0108874964
      141.0000000000        0.2719287377        0.0125636117
      142.0000000000        0.2854810684        0.0146129806
      143.0000000000        0.3013230861        0.0171693746
      144.0000000000        0.3200513938        0.0204231218
      145.0000000000        0.3424903481        0.0246432895
      146.0000000000        0.3697813437        0.0301967124
      147.0000000000        0.4034775216        0.0375300623
      148.0000000000        0.4455611870        0.0470031235
      149.0000000000        0.4981063609        0.0582728817
      150.0000000000        0.5618816384        0.0687037627
      151.0000000000        0.6328922071        0.0711302699
      152.0000000000        0.6982136125        0.0561766086
      153.0000000000        0.7400628166        0.0265038352
      154.0000000000        0.7547314599        0.0032579218
      155.0000000000        0.7551033237        0.0010221947
      156.0000000000        0.7623230101        0.0153491391
      157.0000000000        0.7883601812        0.0375541224
      158.0000000000        0.8387348155        0.0638089308
      159.0000000000        0.9174230043        0.0944648903
      160.0000000000        1.0299487316        0.1320047945
      161.0000000000        1.1848696377        0.1798495558
      162.0000000000        1.3941111336        0.2409624804
      163.0000000000        1.6708916681        0.3139255452
      164.0000000000        2.0210589711        0.3832015544
      165.0000000000        2.4222252021        0.4065864904
      166.0000000000        2.8011315458        0.3334116455
      167.0000000000        3.0644073146        0.1908092753
      168.0000000000        3.2019610926        0.1028507929
      169.0000000000        3.3084818050        0.1243281937
      170.0000000000        3.4572697682        0.1640784834
      171.0000000000        3.5953127785        0.0833701503
      172.0000000000        3.5758659877       -0.1502566910
      173.0000000000        3.3011700561       -0.3817391976
      174.0000000000        2.8643631647       -0.4644825312
      175.0000000000        2.4152873534       -0.4196115180
      176.0000000000        2.0399275429       -0.3288378434
      177.0000000000        1.7564105478       -0.2405116799
      178.0000000000        1.5531173538       -0.1691098097
      179.0000000000        1.4125328642       -0.1145832568
      180.0000000000        1.3196042471       -0.0731045358
      181.0000000000        1.2632777512       -0.0407934790
      182.0000000000        1.2359959205       -0.0145729915
      183.0000000000        1.2328739322        0.0078552808
      184.0000000000        1.2510244439        0.0282258935
      185.0000000000        1.2891028059        0.0479220045
      186.0000000000        1.3470462056        0.0681504239
      187.0000000000        1.4259723067        0.0900883525
      188.0000000000        1.5282183129        0.1150209454
      189.0000000000        1.6575219642        0.1444914272
      190.0000000000        1.8193691005        0.1804886763
      191.0000000000        2.0215601398        0.2257033084
      192.0000000000        2.2750829455        0.2838915728
      193.0000000000        2.5954216230        0.3603897700
      194.0000000000        3.0047624817        0.4627977045
      195.0000000000        3.5334266905        0.6016577999
      196.0000000000        4.2247256995        0.7904881690
      197.0000000000        5.1356048068        1.0425618732
      198.0000000000        6.3313029376        1.3574384443
      199.0000000000        7.8554748468        1.6833378009
      200.0000000000        9.6480257750        1.8548151971
      201.0000000000       11.4257703046        1.6156415839
      202.0000000000       12.7305905138        0.9512532701
      203.0000000000       13.3516315368        0.3507128371
      204.0000000000       13.5846665623        0.1817936176
      205.0000000000       13.7737066310        0.1850285989
      206.0000000000       13.8778080230       -0.0261143601
      207.0000000000       13.6441906284       -0.4621158482
      208.0000000000       12.9496541575       -0.9100559727
      209.0000000000       11.8981663795       -1.1372404484
      210.0000000000       10.8061656430       -0.9918047769
      211.0000000000       10.0137161660       -0.5611999131
      212.0000000000        9.7117928177       -0.0444632893
      213.0000000000        9.8888453991        0.3630367775
      214.0000000000       10.3286687579        0.4450535850
      215.0000000000       10.6286679381        0.0921240202
      216.0000000000       10.4597565444       -0.4131116461
      217.0000000000        9.8999154355       -0.6444348333
      218.0000000000        9.2679552507       -0.5956071632
      219.0000000000        8.7016557923       -0.5616362172
      220.0000000000        8.0875319375       -0.6861958235
      221.0000000000        7.3317161184       -0.8038437376
      222.0000000000        6.5429010961       -0.7410541239
      223.0000000000        5.9007769885       -0.5263517863
      224.0000000000        5.5090428074       -0.2532750686
      225.0000000000        5.3951985302        0.0234052707
      226.0000000000        5.5452266162        0.2668921249
      227.0000000000        5.8943698411        0.4043007103
      228.0000000000        6.2779196892        0.3166430087
      229.0000000000        6.4414664480       -0.0183548465
      230.0000000000        6.2364078113       -0.3667780731
      231.0000000000        5.7902960211       -0.4791239463
      232.0000000000        5.3564059801       -0.3601021025
      233.0000000000        5.1071413246       -0.1276933716
      234.0000000000        5.1138180852        0.1448354398
      235.0000000000        5.4017761816        0.4322566804
      236.0000000000        5.9755512139        0.7097280409
      237.0000000000        6.7957165924        0.9088792077
      238.0000000000        7.7303123312        0.9232909129
      239.0000000000        8.5588518931        0.6921040489
      240.0000000000        9.0312159020        0.2115105680
      241.0000000000        8.9181180921       -0.4491907761
      242.0000000000        8.1758546305       -0.9822924296
      243.0000000000        7.0882143708       -1.1261837289
      244.0000000000        6.0267434373       -0.9631514116
      245.0000000000        5.1984846781       -0.6865666967
      246.0000000000        4.6550349660       -0.4030056162
      247.0000000000        4.3854195759       -0.1397909760
      248.0000000000        4.3685993338        0.1023379173
      249.0000000000        4.5781000655        0.3065678556
      250.0000000000        4.9460130769        0.4012243533
      251.0000000000        5.3022155946        0.2638726205
      252.0000000000        5.3882986548       -0.1232787100
      253.0000000000        5.0544275389       -0.5187039473
      254.0000000000        4.4316962170       -0.6802683321
      255.0000000000        3.7656423396       -0.6269623663
      256.0000000000        3.2054733021       -0.4860676941
      257.0000000000        2.7949560810       -0.3367781017
      258.0000000000        2.5261649592       -0.2040877967
      259.0000000000        2.3801048825       -0.0915335141
      260.0000000000        2.3364339687       -0.0051697893
      261.0000000000        2.3552525236        0.0315941629
      262.0000000000        2.3720743260       -0.0126224506
      263.0000000000        2.3075433452       -0.1211904278
      264.0000000000        2.1363447851       -0.2105508212
      265.0000000000        1.9108321512       -0.2289330630
      266.0000000000        1.6952739595       -0.1971543285
      267.0000000000        1.5213004896       -0.1503225168
      268.0000000000        1.3935885109       -0.1061705116
      269.0000000000        1.3065575893       -0.0690699525
      270.0000000000        1.2533755897       -0.0381553613
      271.0000000000        1.2289055840       -0.0112662861
      272.0000000000        1.2302418808        0.0138138725
      273.0000000000        1.2566248034        0.0391685487
      274.0000000000        1.3093665065        0.0668946396
      275.0000000000        1.3919877517        0.0993614461
      276.0000000000        1.5106484974        0.1395386644
      277.0000000000        1.6749424712        0.1913963122
      278.0000000000        1.8991154440        0.2603348357
      279.0000000000        2.2036351572        0.3533753347
      280.0000000000        2.6164636422        0.4780886728
      281.0000000000        3.1768316977        0.6372389287
      282.0000000000        3.9019475802        0.8116220714
      283.0000000000        4.7809602945        0.9255605814
      284.0000000000        5.6824438542        0.8284946459
      285.0000000000        6.3328131623        0.4285273227
      286.0000000000        6.5084923950       -0.0581692943
      287.0000000000        6.3073575028       -0.2862888515
      288.0000000000        6.0339077052       -0.2298854170
      289.0000000000        5.8612020601       -0.1319223676
      290.0000000000        5.7040656253       -0.2236360706
      291.0000000000        5.3479169810       -0.5030830567
      292.0000000000        4.7172062998       -0.7293010698
      293.0000000000        3.9588607195       -0.7554428518
      294.0000000000        3.2513925100       -0.6468067787
      295.0000000000        2.6755495110       -0.5051176446
      296.0000000000        2.2352910885       -0.3797701321
      297.0000000000        1.9067189507       -0.2818776576
      298.0000000000        1.6634188671       -0.2082671904
      299.0000000000        1.4841348974       -0.1528359454
      300.0000000000        1.3535316803       -0.1100942226
      301.0000000000        1.2611470769       -0.0757849580
      302.0000000000        1.2002374220       -0.0466703037
      303.0000000000        1.1669402928       -0.0201640517
      304.0000000000        1.1598014879        0.0060192849
      305.0000000000        1.1796343437        0.0341790686
      306.0000000000        1.2296761731        0.0669049402
      307.0000000000        1.3159760900        0.1072364144
      308.0000000000        1.4477589372        0.1583551531
      309.0000000000        1.6368371200        0.2216961919
      310.0000000000        1.8932955471        0.2907699012
      311.0000000000        2.2113450229        0.3374608363
      312.0000000000        2.5405275443        0.3009432628
      313.0000000000        2.7670089347        0.1309458422
      314.0000000000        2.7794246447       -0.1036028684
      315.0000000000        2.5904908871       -0.2509440769
      316.0000000000        2.3234206473       -0.2644965691
      317.0000000000        2.0865403584       -0.2023456313
      318.0000000000        1.9250152037       -0.1200898001
      319.0000000000        1.8453750714       -0.0401639715
