# IR Spectrum
# X-Axis:  Frequency (cm-1)
# Y-Axis:  Epsilon
#                  X                   Y               DY/DX
        0.0000000000        0.0241620756        0.0008540061
        1.0000000000        0.0250418729        0.0009063391
        2.0000000000        0.0259763445        0.0009634471
        3.0000000000        0.0269705571        0.0010259285
        4.0000000000        0.0289901071        0.0011064996
        5.0000000000        0.0301338265        0.0011821622
        6.0000000000        0.0313570448        0.0012656704
        7.0000000000        0.0326681571        0.0013581554
        8.0000000000        0.0340767935        0.0014609633
        9.0000000000        0.0355940585        0.0015757066
       10.0000000000        0.0372328293        0.0017043314
       11.0000000000        0.0390081316        0.0018492049
       12.0000000000        0.0427719593        0.0020362568
       13.0000000000        0.0448997568        0.0022234760
       14.0000000000        0.0472279876        0.0024379638
       15.0000000000        0.0497866569        0.0026854222
       16.0000000000        0.0526122335        0.0029731568
       17.0000000000        0.0557495243        0.0033106517
       18.0000000000        0.0592542401        0.0037103940
       19.0000000000        0.0631965586        0.0041890703
       20.0000000000        0.0676661459        0.0047693224
       21.0000000000        0.0727793215        0.0054823333
       22.0000000000        0.0786893742        0.0063716118
       23.0000000000        0.0856014293        0.0074983626
       24.0000000000        0.0937935208        0.0089484463
       25.0000000000        0.1036447967        0.0108390454
       26.0000000000        0.1156671897        0.0133164143
       27.0000000000        0.1305197364        0.0165155250
       28.0000000000        0.1489333061        0.0204016169
       29.0000000000        0.1713572966        0.0243469937
       30.0000000000        0.1970420572        0.0264944746
       31.0000000000        0.2228494002        0.0242530341
       32.0000000000        0.2441848663        0.0181643494
       33.0000000000        0.2599226452        0.0142506207
       34.0000000000        0.2750957988        0.0173393451
       35.0000000000        0.2967583481        0.0268674349
       36.0000000000        0.3302883174        0.0408180993
       37.0000000000        0.3795393874        0.0582050804
       38.0000000000        0.4475068873        0.0779197157
       39.0000000000        0.5348684505        0.0959118593
       40.0000000000        0.6413869079        0.1035305361
       41.0000000000        0.7416477524        0.0944865810
       42.0000000000        0.8280692534        0.0787661953
       43.0000000000        0.9050997840        0.0689870427
       44.0000000000        0.9687728011        0.0567364750
       45.0000000000        1.0157603237        0.0373278786
       46.0000000000        1.0485464859        0.0328531454
       47.0000000000        1.0911002526        0.0558164478
       48.0000000000        1.1627858760        0.0815070993
       49.0000000000        1.2412237314        0.0647655133
       50.0000000000        1.2694910794       -0.0176419186
       51.0000000000        1.1990007990       -0.1198052091
       52.0000000000        1.0472203541       -0.1726862112
       53.0000000000        0.8732407227       -0.1680470112
       54.0000000000        0.7198121621       -0.1368829646
       55.0000000000        0.6031403806       -0.1026076618
       56.0000000000        0.5154894240       -0.0738085144
       57.0000000000        0.4533539766       -0.0514537220
       58.0000000000        0.4108666315       -0.0342397865
       59.0000000000        0.3837018216       -0.0205520858
       60.0000000000        0.3710475334       -0.0089582748
       61.0000000000        0.3674348954        0.0016631224
       62.0000000000        0.3743971948        0.0123514660
       63.0000000000        0.3924606324        0.0240001094
       64.0000000000        0.4229233197        0.0371953306
       65.0000000000        0.4672359092        0.0514527176
       66.0000000000        0.5251333539        0.0634568596
       67.0000000000        0.5930599561        0.0656962476
       68.0000000000        0.6532231514        0.0521933727
       69.0000000000        0.6954106622        0.0331023982
       70.0000000000        0.7248862270        0.0297573376
       71.0000000000        0.7629423779        0.0499680725
       72.0000000000        0.8307576069        0.0880422691
       73.0000000000        0.9429041629        0.1377772668
       74.0000000000        1.1081269946        0.1925967489
       75.0000000000        1.3241067713        0.2345655588
       76.0000000000        1.5594181408        0.2225802138
       77.0000000000        1.7375382154        0.1134329116
       78.0000000000        1.7652440077       -0.0599619625
       79.0000000000        1.6343363778       -0.1859712154
       80.0000000000        1.4307499531       -0.2122361537
       81.0000000000        1.2340928170       -0.1748486004
       82.0000000000        1.0871505088       -0.1182091642
       83.0000000000        0.9972054210       -0.0624422533
       84.0000000000        0.9606977749       -0.0111889272
       85.0000000000        0.9742545530        0.0384009622
       86.0000000000        1.0385531067        0.0911611164
       87.0000000000        1.1593518741        0.1522045756
       88.0000000000        1.3469464097        0.2249950106
       89.0000000000        1.6122602385        0.3059219101
       90.0000000000        1.9543125875        0.3722841820
       91.0000000000        2.3376813487        0.3722755515
       92.0000000000        2.6620866388        0.2562973331
       93.0000000000        2.8191418909        0.0490476794
       94.0000000000        2.7564507411       -0.1703066900
       95.0000000000        2.4976809642       -0.3323289584
       96.0000000000        2.1282964612       -0.3874995591
       97.0000000000        1.7541707982       -0.3496447359
       98.0000000000        1.4417666147       -0.2726811947
       99.0000000000        1.2090014072       -0.1942743700
      100.0000000000        1.0498735607       -0.1280714241
      101.0000000000        0.9482721483       -0.0781734259
      102.0000000000        0.8862772579       -0.0501451842
      103.0000000000        0.8382897040       -0.0506851460
      104.0000000000        0.7776494675       -0.0721926980
      105.0000000000        0.6954391594       -0.0896112795
      106.0000000000        0.6047112780       -0.0889759906
      107.0000000000        0.5214766181       -0.0764053817
      108.0000000000        0.4527011363       -0.0612343743
      109.0000000000        0.3983467310       -0.0479321053
      110.0000000000        0.3558788536       -0.0374664965
      111.0000000000        0.3225746338       -0.0295123060
      112.0000000000        0.2962118801       -0.0234883392
      113.0000000000        0.2751272149       -0.0188810146
      114.0000000000        0.2581081151       -0.0153025737
      115.0000000000        0.2442727412       -0.0124747932
      116.0000000000        0.2329746267       -0.0102005901
      117.0000000000        0.2237341688       -0.0083398545
      118.0000000000        0.2161909690       -0.0067918576
      119.0000000000        0.2100709130       -0.0054831047
      120.0000000000        0.2051633296       -0.0043590807
      121.0000000000        0.2013049947       -0.0033786404
      122.0000000000        0.1983688032       -0.0025101622
      123.0000000000        0.1962556606       -0.0017288765
      124.0000000000        0.1979507232       -0.0009765926
      125.0000000000        0.1973095109       -0.0003131630
      126.0000000000        0.1973118854        0.0003126697
      127.0000000000        0.1979262409        0.0009126324
      128.0000000000        0.1991320239        0.0014971910
      129.0000000000        0.2009187234        0.0020760399
      130.0000000000        0.2054504863        0.0026856309
      131.0000000000        0.2084326567        0.0032816906
      132.0000000000        0.2120215092        0.0039007061
      133.0000000000        0.2162453123        0.0045535007
      134.0000000000        0.2211438483        0.0052523800
      135.0000000000        0.2267702260        0.0060118221
      136.0000000000        0.2331934870        0.0068493903
      137.0000000000        0.2405022807        0.0077869806
      138.0000000000        0.2488100212        0.0088525723
      139.0000000000        0.2582621501        0.0100827403
      140.0000000000        0.2690464437        0.0115263114
      141.0000000000        0.2814077798        0.0132497398
      142.0000000000        0.2956694628        0.0153449987
      143.0000000000        0.3122640918        0.0179409280
      144.0000000000        0.3317777585        0.0212185027
      145.0000000000        0.3550107200        0.0254275903
      146.0000000000        0.3830508551        0.0308917045
      147.0000000000        0.4173282044        0.0379519050
      148.0000000000        0.4595293993        0.0467059189
      149.0000000000        0.5110240255        0.0562268801
      150.0000000000        0.5724645007        0.0630712605
      151.0000000000        0.6354376552        0.0608361370
      152.0000000000        0.6900449183        0.0468886130
      153.0000000000        0.7288858308        0.0321307383
      154.0000000000        0.7591221235        0.0312534617
      155.0000000000        0.7967865739        0.0463223878
      156.0000000000        0.8553341087        0.0722153944
      157.0000000000        0.9438586952        0.1061580857
      158.0000000000        1.0705543048        0.1488461744
      159.0000000000        1.2450095373        0.2017951722
      160.0000000000        1.4768633978        0.2624666095
      161.0000000000        1.7674092519        0.3146270348
      162.0000000000        2.0899223833        0.3177336449
      163.0000000000        2.3710906963        0.2283101251
      164.0000000000        2.5258092368        0.0805300391
      165.0000000000        2.5529287864       -0.0076514743
      166.0000000000        2.5514551961        0.0232998849
      167.0000000000        2.6324983424        0.1372462756
      168.0000000000        2.8385779663        0.2734244983
      169.0000000000        3.1633610700        0.3603100151
      170.0000000000        3.5092937511        0.2984200637
      171.0000000000        3.6907612506        0.0359980214
      172.0000000000        3.5596192173       -0.2880858588
      173.0000000000        3.1665989097       -0.4642580531
      174.0000000000        2.6915612560       -0.4632063192
      175.0000000000        2.2679190968       -0.3776159199
      176.0000000000        1.9399011129       -0.2796797581
      177.0000000000        1.7034260666       -0.1964241019
      178.0000000000        1.5408066273       -0.1317062177
      179.0000000000        1.4349527062       -0.0821532282
      180.0000000000        1.3729167149       -0.0433779621
      181.0000000000        1.3458518619       -0.0116668836
      182.0000000000        1.3481901750        0.0158445637
      183.0000000000        1.3768876244        0.0413834834
      184.0000000000        1.4309178700        0.0667999730
      185.0000000000        1.5110156252        0.0938031306
      186.0000000000        1.6196447612        0.1241780584
      187.0000000000        1.7611849893        0.1600114462
      188.0000000000        1.9427536727        0.2039668387
      189.0000000000        2.1733909997        0.2596244820
      190.0000000000        2.4675554289        0.3320102563
      191.0000000000        2.8453333282        0.4282599626
      192.0000000000        3.3352968069        0.5584536115
      193.0000000000        3.9780076039        0.7362059520
      194.0000000000        4.8289249178        0.9774933326
      195.0000000000        5.9579914662        1.2928655674
      196.0000000000        7.4346053721        1.6611580786
      197.0000000000        9.2635172308        1.9694649223
      198.0000000000       11.2677928034        1.9592325163
      199.0000000000       12.9910785126        1.3945772963
      200.0000000000       13.9432509599        0.5028951648
      201.0000000000       14.0651617624       -0.2067209881
      202.0000000000       13.6061594600       -0.6939474648
      203.0000000000       12.6967822700       -1.1053310508
      204.0000000000       11.4787505051       -1.2721841980
      205.0000000000       10.2678982644       -1.1169999240
      206.0000000000        9.2799019606       -0.8666461741
      207.0000000000        8.4928717438       -0.7314534675
      208.0000000000        7.7901700061       -0.6719179014
      209.0000000000        7.1795914172       -0.5265492970
      210.0000000000        6.7799356373       -0.2561519362
      211.0000000000        6.6864473845        0.0734230358
      212.0000000000        6.9172940577        0.3750679899
      213.0000000000        7.3868036632        0.5258186456
      214.0000000000        7.8704557297        0.3876349891
      215.0000000000        8.0794544170        0.0139297253
      216.0000000000        7.9300773034       -0.2704012091
      217.0000000000        7.6370023676       -0.2733781214
      218.0000000000        7.4284134328       -0.1439807067
      219.0000000000        7.3092112421       -0.1276119968
      220.0000000000        7.1102846163       -0.2889141095
      221.0000000000        6.7388353945       -0.4292045933
      222.0000000000        6.3210923723       -0.3710191807
      223.0000000000        6.0498466072       -0.1563937963
      224.0000000000        6.0133472129        0.0731854298
      225.0000000000        6.1497993474        0.1641080904
      226.0000000000        6.2559203027        0.0056199119
      227.0000000000        6.1063238387       -0.3089881011
      228.0000000000        5.6777613770       -0.5112876917
      229.0000000000        5.1621536844       -0.4854570803
      230.0000000000        4.7553072838       -0.3132795895
      231.0000000000        4.5525289228       -0.0881710033
      232.0000000000        4.5831459101        0.1503232417
      233.0000000000        4.8530173964        0.3877603598
      234.0000000000        5.3485837856        0.5933313677
      235.0000000000        6.0057194716        0.6970524697
      236.0000000000        6.6891353089        0.6453826438
      237.0000000000        7.2669908616        0.5059614154
      238.0000000000        7.6955364023        0.3436280733
      239.0000000000        7.9042745156        0.0371955909
      240.0000000000        7.7071573770       -0.4428773925
      241.0000000000        7.0575980497       -0.8099370513
      242.0000000000        6.1980679498       -0.8569476562
      243.0000000000        5.4212936002       -0.6721894990
      244.0000000000        4.8801588843       -0.4048207950
      245.0000000000        4.6143403848       -0.1275611276
      246.0000000000        4.6240352632        0.1408135904
      247.0000000000        4.8895947971        0.3824697018
      248.0000000000        5.3583109327        0.5291210739
      249.0000000000        5.8690950056        0.4405112905
      250.0000000000        6.1299585621        0.0358630470
      251.0000000000        5.9053914528       -0.4693821957
      252.0000000000        5.2736891110       -0.7398558725
      253.0000000000        4.5232137163       -0.7217394413
      254.0000000000        3.8766645100       -0.5594459810
      255.0000000000        3.4121010120       -0.3689847049
      256.0000000000        3.1301735152       -0.2010448060
      257.0000000000        2.9927775706       -0.0853217158
      258.0000000000        2.9294075536       -0.0595018779
      259.0000000000        2.8399139487       -0.1384418937
      260.0000000000        2.6427621977       -0.2520870883
      261.0000000000        2.3574153375       -0.3044459060
      262.0000000000        2.0589488389       -0.2833324238
      263.0000000000        1.8014869068       -0.2293858275
      264.0000000000        1.6004910746       -0.1731946728
      265.0000000000        1.4519459062       -0.1255574402
      266.0000000000        1.3461993665       -0.0873684756
      267.0000000000        1.2747553466       -0.0565350992
      268.0000000000        1.2315000374       -0.0306012670
      269.0000000000        1.2126415960       -0.0074119699
      270.0000000000        1.2163776322        0.0148770479
      271.0000000000        1.2426619664        0.0379671026
      272.0000000000        1.2931656753        0.0636288282
      273.0000000000        1.3714640012        0.0939434355
      274.0000000000        1.4834871400        0.1315936916
      275.0000000000        1.6438290157        0.1802958018
      276.0000000000        1.8548578978        0.2449334902
      277.0000000000        2.1412278094        0.3322061595
      278.0000000000        2.5293267987        0.4495632403
      279.0000000000        3.0518170428        0.6007786042
      280.0000000000        3.7378588626        0.7712671505
      281.0000000000        4.5799053398        0.8953481166
      282.0000000000        5.4652766577        0.8292175172
      283.0000000000        6.1314030436        0.4533735804
      284.0000000000        6.3211818635       -0.0655032995
      285.0000000000        6.0795498923       -0.3587817918
      286.0000000000        5.7183224855       -0.3183375233
      287.0000000000        5.4953864307       -0.1210674628
      288.0000000000        5.4518016613        0.0046514219
      289.0000000000        5.4230320245       -0.1075212774
      290.0000000000        5.1672503651       -0.4185719162
      291.0000000000        4.6069042029       -0.6716253512
      292.0000000000        3.8967472837       -0.7152203010
      293.0000000000        3.2240761580       -0.6164367961
      294.0000000000        2.6757083838       -0.4799582024
      295.0000000000        2.2592032353       -0.3570587911
      296.0000000000        1.9529221882       -0.2597316615
      297.0000000000        1.7321413495       -0.1851214059
      298.0000000000        1.5771502397       -0.1271209322
      299.0000000000        1.4742875532       -0.0799915584
      300.0000000000        1.4151386511       -0.0389714441
      301.0000000000        1.3956644019       -0.0000002401
      302.0000000000        1.4157226238        0.0407291612
      303.0000000000        1.4790105857        0.0871277987
      304.0000000000        1.5931927766        0.1431354203
      305.0000000000        1.7693751586        0.2112272821
      306.0000000000        2.0184124221        0.2869801309
      307.0000000000        2.3381802096        0.3459710364
      308.0000000000        2.6853295067        0.3292583058
      309.0000000000        2.9493765550        0.1745999654
      310.0000000000        3.0025072403       -0.0709224959
      311.0000000000        2.8319063530       -0.2473046891
      312.0000000000        2.5576213037       -0.2794591717
      313.0000000000        2.3037482591       -0.2188381349
      314.0000000000        2.1291592781       -0.1288159146
      315.0000000000        2.0462226140       -0.0376994355
      316.0000000000        2.0525649525        0.0501191230
      317.0000000000        2.1471164659        0.1400104978
      318.0000000000        2.3362738492        0.2410345025
      319.0000000000        2.6366223356        0.3644337180
